Name,pranav varma
Date of birth,1975-01-14
Created time,2024-12-04 21:38:42
Average heart rate,75
Classification,Sinus rhythm
Symptoms,
Software version,Wear OS 13
Device,SM-R910
Sampling rate,500.000 Hz


Lead,Lead I
Unit,mV

0.269171
0.268289
0.267266
0.26726
0.269342
0.274021
0.28095
0.289035
0.296834
0.302938
0.306305
0.306587
0.304169
0.299927
0.294849
0.289651
0.284642
0.279776
0.274708
0.268758
0.261035
0.250785
0.237855
0.223132
0.20865
0.197109
0.191007
0.19182
0.199468
0.212211
0.227064
0.240666
0.250266
0.254538
0.254015
0.250889
0.248082
0.248069
0.252061
0.259786
0.269715
0.279642
0.287592
0.292498
0.294111
0.292609
0.288553
0.2829
0.276536
0.269772
0.262557
0.255183
0.248353
0.242548
0.237848
0.23444
0.232703
0.232661
0.233775
0.235467
0.237546
0.239915
0.242187
0.243812
0.244474
0.24414
0.242838
0.240626
0.237853
0.235166
0.233088
0.231718
0.230806
0.229968
0.228918
0.227581
0.226174
0.22528
0.225691
0.227964
0.232033
0.237148
0.242112
0.245698
0.24711
0.246207
0.24338
0.239376
0.235159
0.23158
0.228927
0.226834
0.224627
0.221658
0.217413
0.211561
0.204053
0.195015
0.184362
0.171579
0.156054
0.137588
0.116608
0.094137
0.071799
0.051583
0.035179
0.023467
0.016608
0.014348
0.016102
0.021005
0.02818
0.036997
0.046922
0.057193
0.066761
0.074587
0.079872
0.082144
0.081355
0.077983
0.072859
0.066739
0.060146
0.053493
0.047221
0.041841
0.037919
0.035995
0.036367
0.038789
0.042444
0.046217
0.049054
0.050133
0.048868
0.04484
0.037806
0.027773
0.015067
0.00044
-0.014905
-0.029377
-0.041136
-0.048462
-0.050294
-0.046611
-0.038408
-0.027342
-0.0153
-0.003959
0.005543
0.012643
0.017251
0.019582
0.01992
0.018426
0.015092
0.009826
0.002535
-0.006757
-0.017807
-0.030154
-0.043281
-0.056646
-0.069534
-0.080955
-0.089861
-0.095636
-0.09839
-0.098814
-0.097892
-0.096823
-0.096873
-0.098934
-0.103099
-0.108677
-0.114559
-0.119501
-0.122342
-0.122229
-0.118664
-0.111371
-0.100265
-0.085665
-0.068537
-0.050383
-0.032783
-0.017144
-0.004644
0.003989
0.008747
0.010386
0.010248
0.010037
0.011537
0.016059
0.023927
0.034378
0.045867
0.056582
0.064803
0.069057
0.068407
0.06279
0.053027
0.040484
0.026722
0.013309
0.001544
-0.00792
-0.015053
-0.020097
-0.023332
-0.02514
-0.026089
-0.026885
-0.028345
-0.031388
-0.036738
-0.044392
-0.053329
-0.06177
-0.067739
-0.069476
-0.065823
-0.056709
-0.043384
-0.02812
-0.013523
-0.001857
0.005436
0.008038
0.006759
0.003071
-0.001572
-0.006221
-0.010579
-0.014895
-0.019715
-0.025546
-0.032596
-0.040728
-0.049407
-0.057641
-0.064116
-0.067429
-0.066036
-0.058089
-0.041767
-0.016801
0.017115
0.060305
0.111574
0.168676
0.228467
0.287578
0.342714
0.390446
0.427363
0.482164
0.495408
0.489252
0.463768
0.392729
0.340289
0.275345
0.200872
0.120971
0.040801
-0.034286
-0.168493
-0.22834
-0.228868
-0.219016
-0.233278
-0.238621
-0.238235
-0.234731
-0.229924
-0.225045
-0.221027
-0.218756
-0.219153
-0.22297
-0.230451
-0.241054
-0.25332
-0.265094
-0.274185
-0.279122
-0.279623
-0.276632
-0.271952
-0.267742
-0.266032
-0.268192
-0.274493
-0.283929
-0.29437
-0.303042
-0.307335
-0.305809
-0.298788
-0.288175
-0.276632
-0.266662
-0.259982
-0.257302
-0.258208
-0.261231
-0.264348
-0.265702
-0.264156
-0.259553
-0.252631
-0.244636
-0.23675
-0.229726
-0.223981
-0.219949
-0.218248
-0.219441
-0.223635
-0.230287
-0.238217
-0.245769
-0.251281
-0.25366
-0.252618
-0.248464
-0.241842
-0.233661
-0.224929
-0.216459
-0.208648
-0.201484
-0.194719
-0.188176
-0.182063
-0.176924
-0.173095
-0.17027
-0.167672
-0.164497
-0.160028
-0.15351
-0.144305
-0.132264
-0.117767
-0.101559
-0.084792
-0.069075
-0.056041
-0.046696
-0.041183
-0.03892
-0.038757
-0.039078
-0.038078
-0.034203
-0.026608
-0.01541
-0.001622
0.013141
0.027074
0.038647
0.046973
0.052017
0.054545
0.05569
0.056381
0.0571
0.058069
0.059409
0.060996
0.062342
0.062781
0.061786
0.059119
0.054756
0.048806
0.041479
0.032911
0.022945
0.011267
-0.002305
-0.017684
-0.034458
-0.051845
-0.068685
-0.083503
-0.094757
-0.101293
-0.10294
-0.100808
-0.097026
-0.094192
-0.094821
-0.100791
-0.112877
-0.130595
-0.152497
-0.176654
-0.2009
-0.223105
-0.241712
-0.256067
-0.26628
-0.272981
-0.277222
-0.280335
-0.2836
-0.287939
-0.293855
-0.301411
-0.310298
-0.319928
-0.329376
-0.337423
-0.342945
-0.34535
-0.344614
-0.340938
-0.334645
-0.326385
-0.317109
-0.307887
-0.299891
-0.294431
-0.292713
-0.295293
-0.301781
-0.311036
-0.321375
-0.330727
-0.33713
-0.339339
-0.337257
-0.331988
-0.325523
-0.320086
-0.31738
-0.318125
-0.32203
-0.327876
-0.333766
-0.337776
-0.338631
-0.335996
-0.330342
-0.322777
-0.314945
-0.308538
-0.304509
-0.302609
-0.301633
-0.300047
-0.296529
-0.290392
-0.281934
-0.272387
-0.263315
-0.255876
-0.250506
-0.246987
-0.244495
-0.241764
-0.237654
-0.231745
-0.224416
-0.216433
-0.208526
-0.201234
-0.194881
-0.189585
-0.185375
-0.182409
-0.181073
-0.181923
-0.18559
-0.192653
-0.20331
-0.216904
-0.231724
-0.245301
-0.255067
-0.259064
-0.256405
-0.247473
-0.233957
-0.218535
-0.204038
-0.192546
-0.18485
-0.180332
-0.177309
-0.173903
-0.168993
-0.162508
-0.154988
-0.146978
-0.138775
-0.130389
-0.121549
-0.111851
-0.101123
-0.089775
-0.078721
-0.068952
-0.061163
-0.055565
-0.051852
-0.049389
-0.047575
-0.046128
-0.045116
-0.044708
-0.044972
-0.04586
-0.047235
-0.048784
-0.049945
-0.050086
-0.048833
-0.046184
-0.042393
-0.037878
-0.033219
-0.029089
-0.025975
-0.023979
-0.022945
-0.02266
-0.022906
-0.023437
-0.023978
-0.024264
-0.024021
-0.022897
-0.020487
-0.016533
-0.011268
-0.00564
-0.001169
0.000558
-0.0015
-0.007343
-0.015839
-0.025027
-0.032662
-0.036872
-0.03667
-0.032158
-0.024428
-0.015204
-0.006348
0.000582
0.004693
0.005909
0.004808
0.002289
-0.000638
-0.002808
-0.002824
0.00072
0.008808
0.021706
0.038838
0.058705
0.079055
0.09745
0.111925
0.121455
0.126175
0.127275
0.126488
0.125398
0.12405
0.12365
0.124076
0.124851
0.125772
0.127236
0.130109
0.135192
0.142681
0.151997
0.161834
0.170218
0.174849
0.173797
0.166039
0.151604
0.131425
0.107212
0.081361
0.056701
0.03613
0.02215
0.016324
0.01878
0.027999
0.041253
0.055584
0.068578
0.078737
0.085786
0.090696
0.095026
0.099921
0.105555
0.111245
0.115774
0.117821
0.116546
0.111956
0.1047
0.09556
0.08519
0.074239
0.063417
0.053333
0.044545
0.037725
0.03354
0.032369
0.0341
0.038047
0.04307
0.048059
0.052666
0.057648
0.06456
0.075146
0.090885
0.112678
0.14071
0.17449
0.213004
0.254844
0.298378
0.342048
0.384685
0.425485
0.46357
0.497589
0.525609
0.545163
0.553336
0.585507
0.570452
0.530101
0.462998
0.344929
0.258769
0.169767
0.053226
-0.064078
-0.127493
-0.126244
-0.136452
-0.109723
-0.103517
-0.0892
-0.07038
-0.05019
-0.031182
-0.015342
-0.004176
0.00127
0.000508
-0.006362
-0.018694
-0.03529
-0.054484
-0.074466
-0.09357
-0.110376
-0.123749
-0.132937
-0.137655
-0.138157
-0.135327
-0.130747
-0.126514
-0.124614
-0.126237
-0.131451
-0.139363
-0.148444
-0.156893
-0.163096
-0.166054
-0.165011
-0.161687
-0.157554
-0.154031
-0.152012
-0.151522
-0.15159
-0.150695
-0.147721
-0.142637
-0.136284
-0.129809
-0.124403
-0.12108
-0.120187
-0.121115
-0.122646
-0.123618
-0.123283
-0.121386
-0.118341
-0.115218
-0.113234
-0.113146
-0.115046
-0.118424
-0.122246
-0.125129
-0.12565
-0.122627
-0.115331
-0.103706
-0.08845
-0.07085
-0.052503
-0.035044
-0.019819
-0.007564
0.001745
0.00876
0.014474
0.019916
0.025872
0.032703
0.040437
0.048955
0.058028
0.067354
0.076737
0.086227
0.096067
0.106592
0.118152
0.130868
0.144276
0.157177
0.167832
0.17448
0.175978
0.172335
0.164869
0.155882
0.148
0.143444
0.143456
0.148114
0.156578
0.167579
0.179835
0.192249
0.20399
0.214465
0.223118
0.229249
0.232014
0.230665
0.224915
0.215182
0.202422
0.187665
0.171688
0.155022
0.13807
0.12119
0.10484
0.089757
0.076827
0.066605
0.059026
0.053472
0.048949
0.044263
0.038453
0.031349
0.023633
0.016228
0.009683
0.004082
-0.000718
-0.004933
-0.008718
-0.011852
-0.013546
-0.012737
-0.008548
-0.000632
0.010584
0.023724
0.036601
0.046938
0.053257
0.055232
0.053456
0.049044
0.043407
0.038037
0.034075
0.031914
0.03115
0.03093
0.030373
0.028831
0.026095
0.022587
0.019223
0.016925
0.016154
0.016723
0.017813
0.018078
0.015997
0.010532
0.001828
-0.008585
-0.018318
-0.024986
-0.026939
-0.023648
-0.015715
-0.004541
0.008089
0.020465
0.031381
0.04028
0.046987
0.051284
0.052749
0.050996
0.046142
0.039132
0.031664
0.025767
0.023146
0.024518
0.02929
0.035781
0.04187
0.045662
0.045912
0.042195
0.034894
0.025035
0.013948
0.002921
-0.006926
-0.014538
-0.018861
-0.019077
-0.015025
-0.007453
0.002095
0.011648
0.019274
0.023483
0.023615
0.020036
0.013986
0.007092
0.000768
-0.004104
-0.007136
-0.008307
-0.007967
-0.006743
-0.005233
-0.003819
-0.002768
-0.002305
-0.002376
-0.002543
-0.002262
-0.001213
0.000795
0.004068
0.008944
0.01551
0.02352
0.032466
0.041421
0.048904
0.053176
0.05275
0.046668
0.034681
0.017469
-0.003287
-0.025184
-0.045496
-0.061485
-0.070795
-0.07203
-0.06515
-0.051447
-0.033232
-0.013452
0.004802
0.018995
0.027838
0.031519
0.031363
0.029166
0.026563
0.024677
0.024032
0.024639
0.026248
0.028651
0.031653
0.034707
0.036677
0.036067
0.03154
0.022371
0.008767
-0.007876
-0.02498
-0.039278
-0.047727
-0.048331
-0.040509
-0.025082
-0.003994
0.020175
0.044873
0.068169
0.088969
0.10681
0.121576
0.133368
0.14239
0.148856
0.152868
0.154355
0.153055
0.148672
0.141231
0.131329
0.120114
0.109046
0.099544
0.092617
0.088658
0.087464
0.088327
0.090165
0.091733
0.091976
0.090332
0.08681
0.081863
0.076246
0.070894
0.066648
0.064004
0.062994
0.063191
0.063742
0.063577
0.061774
0.057911
0.052241
0.045643
0.039416
0.034918
0.033179
0.034571
0.038708
0.044618
0.051149
0.057337
0.062515
0.066223
0.068097
0.067759
0.064783
0.058813
0.049929
0.03908
0.028153
0.019601
0.015767
0.018182
0.026985
0.040707
0.056676
0.071948
0.08411
0.091699
0.094321
0.092424
0.08687
0.078509
0.068012
0.055957
0.04294
0.029779
0.017898
0.009434
0.006663
0.011017
0.022361
0.038959
0.057931
0.075959
0.090229
0.099212
0.102848
0.102216
0.099203
0.096379
0.096785
0.10334
0.118177
0.142502
0.176767
0.220643
0.272755
0.330495
0.390171
0.44734
0.497313
0.569233
0.595333
0.603125
0.593028
0.565937
0.493447
0.440599
0.378357
0.310684
0.24191
0.176241
0.117226
0.067354
0.027857
-0.001354
-0.021509
-0.034523
-0.042428
-0.046946
-0.049206
-0.049662
-0.048356
-0.045156
-0.039801
-0.03202
-0.021822
-0.009665
0.003655
0.01724
0.030364
0.042597
0.053821
0.064209
0.074005
0.083149
0.09109
0.097016
0.100109
0.099682
0.095402
0.087649
0.077569
0.066633
0.056138
0.047094
0.040405
0.036868
0.036959
0.040723
0.047891
0.057886
0.069625
0.081498
0.091651
0.098334
0.100224
0.096804
0.088649
0.077301
0.064805
0.053156
0.043849
0.037723
0.035119
0.035995
0.039821
0.04549
0.05156
0.056628
0.059516
0.059262
0.055321
0.047908
0.038009
0.026965
0.016252
0.007592
0.002841
0.003449
0.010073
0.022599
0.040168
0.061136
0.083186
0.103753
0.120583
0.132196
0.138152
0.139118
0.13673
0.133192
0.130799
0.131469
0.136286
0.145429
0.158487
0.174832
0.193704
0.214118
0.234767
0.254079
0.270405
0.282238
0.288482
0.288706
0.283332
0.27367
0.261835
0.250523
0.242607
0.240492
0.245383
0.256914
0.273273
0.291758
0.309553
0.324604
0.336214
0.344989
0.352276
0.359406
0.366883
0.373813
0.377958
0.376527
0.39925
0.349688
0.32482
0.295915
0.2674
0.243455
0.22615
0.215956
0.211597
0.210002
0.207404
0.200426
0.187065
0.167054
0.14164
0.113236
0.084853
0.059286
0.038367
0.022731
0.011998
0.005044
0.000351
-0.003421
-0.006898
-0.009947
-0.012157
-0.013401
-0.014042
-0.014751
-0.016263
-0.019092
-0.023283
-0.02829
-0.033166
-0.037001
-0.039206
-0.039537
-0.038099
-0.035446
-0.032541
-0.030472
-0.030154
-0.032344
-0.03775
-0.046947
-0.060227
-0.077242
-0.096264
-0.1151
-0.131432
-0.142682
-0.146982
-0.143656
-0.133598
-0.119345
-0.104672
-0.093947
-0.091351
-0.06519
-0.087414
-0.148971
-0.182394
-0.214687
-0.311983
-0.334895
-0.291238
-0.247654
-0.228875
-0.207412
-0.188981
-0.146937
-0.136168
-0.18124
-0.191646
-0.203036
-0.21267
-0.219328
-0.22322
-0.22589
-0.229781
-0.236935
-0.247434
-0.258964
-0.267762
-0.270182
-0.294052
-0.249392
-0.228543
-0.205449
-0.184367
-0.168454
-0.159051
-0.155839
-0.157616
-0.163163
-0.17192
-0.184191
-0.200715
-0.221884
-0.246958
-0.273606
-0.297989
-0.348629
-0.36132
-0.352072
-0.300216
-0.274127
-0.244007
-0.215431
-0.193269
-0.150476
-0.178293
-0.184722
-0.196166
-0.207704
-0.214831
-0.24611
-0.206679
-0.191872
-0.172956
-0.153282
-0.13587
-0.122702
-0.114762
-0.11244
-0.115719
-0.124092
-0.136394
-0.150714
-0.164391
-0.174296
-0.242501
-0.236512
-0.159074
-0.139613
-0.117359
-0.096153
-0.079537
-0.069917
-0.068042
-0.073144
-0.08354
-0.097212
-0.111957
-0.125461
-0.135597
-0.140145
-0.13857
-0.130617
-0.117013
-0.099496
-0.080315
-0.061669
-0.045549
-0.033624
-0.02682
-0.024906
-0.026492
-0.029422
-0.031269
-0.029798
-0.023501
-0.012253
0.002333
0.017138
0.028303
0.032424
0.027786
0.015184
-0.002218
-0.020011
-0.033942
-0.071457
-0.04011
-0.032502
-0.02142
-0.011051
-0.005074
-0.005628
-0.012894
-0.025343
-0.040572
-0.056266
-0.070694
-0.082634
-0.091133
-0.095593
-0.095891
-0.09238
-0.086022
-0.078638
-0.072822
-0.071374
-0.076522
-0.089115
-0.107983
-0.129918
-0.150591
-0.165971
-0.173609
-0.173343
-0.167202
-0.158631
-0.151226
-0.147563
-0.148608
-0.153829
-0.161838
-0.171091
-0.180494
-0.189823
-0.199831
-0.211811
-0.226852
-0.245156
-0.265834
-0.287106
-0.306721
-0.322491
-0.332637
-0.335798
-0.331028
-0.318268
-0.299016
-0.276343
-0.25406
-0.235518
-0.190324
-0.181959
-0.211943
-0.208724
-0.267662
-0.254024
-0.172909
-0.151238
-0.128644
-0.108298
-0.092373
-0.081462
-0.074549
-0.069743
-0.065443
-0.061174
-0.057657
-0.056523
-0.059814
-0.069071
-0.084243
-0.103242
-0.122484
-0.137823
-0.14526
-0.209737
-0.163009
-0.098088
-0.0618
-0.02072
0.021188
0.061017
0.097663
0.131793
0.16517
0.19991
0.237846
0.279764
0.324718
0.370007
0.411849
0.446302
0.501978
0.551585
0.514206
0.487538
0.440334
0.375346
0.268305
0.182479
0.092174
0.003926
-0.113266
-0.226124
-0.282156
-0.294885
-0.261288
-0.223505
-0.208734
-0.189595
-0.171016
-0.156389
-0.147162
-0.143017
-0.142334
-0.142775
-0.141888
-0.137786
-0.129887
-0.11934
-0.108783
-0.101375
-0.099511
-0.103874
-0.11326
-0.125121
-0.136395
-0.144375
-0.147358
-0.144994
-0.138227
-0.128987
-0.119556
-0.111763
-0.106403
-0.103201
-0.101236
-0.099556
-0.097874
-0.097029
-0.098914
-0.105799
-0.119414
-0.140175
-0.166689
-0.195725
-0.222766
-0.314451
-0.328686
-0.284357
-0.237693
-0.217304
-0.194442
-0.173427
-0.156668
-0.144251
-0.134509
-0.125028
-0.113682
-0.099466
-0.08284
-0.065477
-0.049662
-0.037641
-0.030914
-0.029774
-0.033347
-0.040101
-0.048574
-0.057707
-0.066818
-0.075538
-0.083813
-0.091752
-0.099196
-0.105302
-0.108435
-0.106488
-0.097632
-0.081116
-0.057767
-0.030017
-0.001424
0.024078
0.073988
0.052934
0.053504
0.046342
0.034612
0.021776
0.01056
0.002499
-0.001946
-0.00298
-0.000952
0.003982
0.011599
0.022025
0.034624
0.048374
0.062005
0.074093
0.083313
0.088893
0.090823
0.089563
0.085724
0.080005
0.073203
0.066094
0.059245
0.053081
0.048013
0.044234
0.041262
0.037788
0.032007
0.022146
0.006904
-0.014077
-0.039853
-0.068327
-0.09689
-0.123126
-0.145226
-0.162164
-0.173877
-0.181321
-0.186244
-0.19066
-0.196332
-0.204388
-0.215142
-0.228172
-0.242629
-0.257587
-0.272194
-0.28568
-0.297425
-0.306991
-0.314096
-0.318531
-0.320171
-0.319169
-0.316057
-0.311725
-0.307331
-0.304137
-0.303198
-0.305135
-0.310087
-0.317749
-0.327252
-0.33703
-0.344954
-0.348675
-0.346129
-0.336081
-0.318602
-0.295153
-0.268234
-0.240943
-0.216499
-0.197572
-0.185736
-0.181366
-0.183842
-0.192005
-0.204615
-0.220551
-0.238729
-0.257824
-0.276145
-0.291811
-0.303209
-0.309482
-0.310749
-0.307871
-0.301899
-0.293597
-0.283407
-0.271671
-0.258697
-0.24481
-0.230541
-0.216801
-0.204704
-0.195102
-0.188129
-0.18297
-0.178086
-0.171862
-0.163404
-0.153058
-0.142283
-0.132997
-0.126919
-0.125131
-0.127821
-0.134201
-0.142646
-0.151208
-0.158359
-0.163466
-0.166786
-0.169025
-0.170645
-0.171483
-0.170872
-0.168054
-0.162426
-0.15356
-0.141346
-0.126294
-0.109609
-0.092826
-0.077319
-0.063998
-0.053358
-0.045515
-0.0402
-0.037079
-0.036197
-0.038104
-0.0437
-0.054015
-0.06989
-0.091462
-0.117641
-0.145847
-0.172294
-0.192765
-0.239121
-0.238674
-0.217684
-0.160477
-0.126285
-0.089788
-0.055809
-0.027514
-0.007302
0.004049
0.007525
0.005413
0.000253
-0.006082
-0.012578
-0.018985
-0.025736
-0.033501
-0.042541
-0.052291
-0.0616
-0.06933
-0.074677
-0.077207
-0.07686
-0.073934
-0.068937
-0.062218
-0.053756
-0.04341
-0.031265
-0.017848
-0.004311
0.00756
0.01578
0.018736
0.015604
0.006466
-0.007728
-0.025374
-0.044488
-0.062857
-0.078182
-0.088469
-0.092566
-0.090354
-0.082548
-0.070412
-0.055602
-0.039966
-0.025246
-0.012854
-0.003809
0.001328
0.002551
0.000342
-0.004551
-0.01131
-0.019192
-0.027635
-0.036296
-0.044893
-0.052911
-0.059449
-0.063432
-0.063902
-0.060091
-0.051392
-0.037601
-0.019439
0.001245
0.022002
0.040537
0.054958
0.063747
0.065871
0.060878
0.048868
0.030644
0.008172
-0.0152
-0.035373
-0.048651
-0.085145
-0.077547
-0.026839
0.000849
0.034189
0.068526
0.099347
0.122932
0.13679
0.140078
0.133592
0.119307
0.099902
0.078734
0.059804
0.047034
0.043268
0.049816
0.06641
0.091202
0.121017
0.151968
0.180314
0.203257
0.219494
0.229373
0.234549
0.237186
0.23923
0.241973
0.245707
0.249518
0.251587
0.250007
0.243571
0.232103
0.216526
0.198811
0.181521
0.16694
0.156493
0.150755
0.149646
0.152519
0.158456
0.166819
0.177518
0.19063
0.205931
0.222875
0.240701
0.258497
0.275302
0.29036
0.303939
0.31657
0.329081
0.342523
0.358023
0.376572
0.39904
0.426334
0.459504
0.499659
0.547618
0.603289
0.665042
0.729416
0.79127
0.877534
0.971345
1.010894
1.000274
0.944851
0.833155
0.710217
0.619707
0.526376
0.437974
0.323082
0.258003
0.214288
0.190665
0.214005
0.216472
0.229869
0.25094
0.276416
0.30328
0.329055
0.351934
0.370755
0.38495
0.394345
0.398872
0.398608
0.39413
0.386527
0.376817
0.365452
0.352379
0.337319
0.319967
0.300264
0.278919
0.257696
0.239118
0.225932
0.19046
0.225497
0.240561
0.264001
0.292086
0.320637
0.34622
0.366722
0.381516
0.391298
0.397567
0.401973
0.405962
0.410733
0.417162
0.425583
0.43572
0.446929
0.458411
0.469148
0.477873
0.483487
0.485503
0.484127
0.480219
0.475343
0.471404
0.469763
0.470516
0.472556
0.474303
0.474482
0.472728
0.469857
0.467654
0.468083
0.472456
0.481146
0.49384
0.509771
0.527918
0.547407
0.567924
0.589803
0.613721
0.640122
0.668739
0.698495
0.727737
0.754584
0.777305
0.794593
0.805697
0.810417
0.809151
0.803009
0.793761
0.783456
0.773993
0.766981
0.763774
0.765373
0.77216
0.783829
0.799531
0.817962
0.837317
0.855332
0.869679
0.878663
0.881792
0.879895
0.874789
0.868619
0.863197
0.859475
0.857223
0.85501
0.850644
0.841916
0.827245
0.806026
0.778656
0.746392
0.710962
0.674014
0.636784
0.600269
0.565587
0.533979
0.506576
0.484314
0.467754
0.456702
0.451265
0.449804
0.449914
0.448921
0.444294
0.433927
0.416583
0.39224
0.362017
0.327815
0.291957
0.256721
0.223924
0.194804
0.170047
0.14973
0.133241
0.119473
0.107403
0.096506
0.086688
0.078175
0.071627
0.067963
0.06775
0.07069
0.075628
0.080793
0.083984
0.082936
0.075979
0.062629
0.043702
0.020996
-0.003113
-0.026198
-0.046408
-0.062934
-0.075983
-0.086481
-0.095653
-0.104459
-0.112998
-0.120385
-0.125299
-0.126762
-0.124606
-0.119433
-0.112461
-0.105245
-0.099133
-0.094781
-0.092237
-0.091271
-0.091542
-0.092789
-0.09519
-0.099683
-0.107682
-0.120408
-0.138458
-0.161727
-0.1894
-0.220011
-0.251553
-0.281637
-0.307554
-0.326501
-0.336201
-0.335548
-0.324904
-0.306241
-0.283055
-0.259738
-0.240456
-0.228101
-0.22384
-0.226576
-0.235082
-0.246685
-0.258569
-0.268598
-0.275742
-0.28002
-0.282209
-0.283553
-0.2854
-0.288871
-0.294763
-0.303581
-0.31567
-0.33125
-0.350316
-0.372516
-0.396988
-0.422265
-0.44633
-0.466861
-0.48172
-0.489633
-0.490542
-0.485529
-0.476558
-0.466058
-0.456284
-0.448772
-0.44429
-0.442957
-0.44429
-0.447279
-0.450795
-0.454022
-0.456555
-0.458251
-0.459174
-0.459609
-0.4598
-0.459732
-0.45929
-0.458509
-0.457389
-0.455585
-0.452543
-0.448074
-0.442546
-0.436534
-0.430279
-0.423587
-0.416144
-0.407799
-0.398569
-0.388728
-0.379075
-0.37092
-0.36556
-0.363686
-0.365267
-0.369733
-0.376059
-0.383039
-0.389966
-0.397201
-0.405987
-0.417636
-0.432857
-0.4516
-0.472997
-0.495334
-0.516318
-0.53364
-0.545645
-0.551801
-0.552809
-0.550291
-0.546089
-0.541644
-0.537781
-0.534777
-0.532536
-0.530893
-0.529913
-0.529956
-0.531379
-0.534233
-0.538203
-0.542595
-0.546384
-0.54835
-0.547466
-0.543331
-0.536375
-0.527653
-0.518449
-0.509868
-0.502478
-0.496232
-0.490562
-0.484651
-0.477851
-0.470071
-0.461832
-0.453991
-0.447394
-0.442694
-0.440267
-0.440237
-0.442406
-0.446128
-0.450406
-0.454253
-0.456989
-0.458198
-0.457436
-0.454071
-0.447505
-0.437543
-0.424607
-0.409874
-0.395242
-0.382796
-0.374082
-0.369761
-0.369717
-0.373307
-0.379681
-0.388166
-0.398613
-0.411287
-0.426183
-0.442329
-0.457731
-0.469824
-0.538704
-0.507073
-0.466875
-0.453398
-0.437645
-0.422847
-0.411807
-0.40647
-0.407602
-0.414749
-0.426556
-0.441141
-0.456177
-0.469042
-0.477528
-0.48057
-0.478374
-0.471976
-0.46298
-0.453482
-0.445649
-0.440914
-0.439464
-0.44059
-0.443245
-0.446308
-0.448591
-0.448821
-0.445561
-0.437054
-0.421381
-0.397194
-0.364324
-0.323585
-0.275853
-0.221505
-0.1607
-0.093947
-0.022448
0.051699
0.125305
0.194015
0.322386
0.344267
0.370537
0.37064
0.345635
0.295377
0.219101
0.118024
-0.01121
-0.109596
-0.275768
-0.383722
-0.440897
-0.447741
-0.402194
-0.359594
-0.340907
-0.316508
-0.290949
-0.267438
-0.248029
-0.234051
-0.226415
-0.225604
-0.231072
-0.241075
-0.253551
-0.265524
-0.274313
-0.2782
-0.276779
-0.270883
-0.262118
-0.252131
-0.242196
-0.233146
-0.225353
-0.218696
-0.212817
-0.207614
-0.203394
-0.200558
-0.199233
-0.199357
-0.200962
-0.204186
-0.208898
-0.214304
-0.218804
-0.219986
-0.214889
-0.201043
-0.209079
-0.146302
-0.110404
-0.074723
-0.010655
0.046393
0.018757
-0.011899
-0.018782
-0.028743
-0.037677
-0.04242
-0.041386
-0.034731
-0.023828
-0.010478
0.003612
0.017015
0.02862
0.037588
0.043163
0.044512
0.040957
0.032643
0.021059
0.008945
-0.00025
-0.002982
-0.065376
-0.042419
0.047121
0.078907
0.111143
0.170103
0.191443
0.169203
0.170825
0.166222
0.158777
0.151784
0.147863
0.148838
0.155444
0.167099
0.182285
0.199316
0.216703
0.233135
0.247534
0.259294
0.268469
0.275646
0.28173
0.287683
0.294128
0.30116
0.308608
0.316392
0.324618
0.333179
0.341536
0.348922
0.354508
0.357292
0.356068
0.349839
0.338401
0.322442
0.30329
0.282667
0.262455
0.24425
0.228903
0.216363
0.205968
0.19683
0.187972
0.178466
0.167724
0.155585
0.141907
0.12609
0.107145
0.084469
0.058655
0.031539
0.005533
-0.017021
-0.034188
-0.04496
-0.049866
-0.050948
-0.050924
-0.052349
-0.056999
-0.065365
-0.076338
-0.087511
-0.096066
-0.099618
-0.096676
-0.086785
-0.070821
-0.05103
-0.030588
-0.012836
-0.000649
0.003962
0.000206
-0.011346
-0.028807
-0.049232
-0.069139
-0.08521
-0.094909
-0.096859
-0.090919
-0.078071
-0.060208
-0.040017
-0.020566
-0.004583
0.006098
0.010573
0.008765
0.001315
-0.010699
-0.026092
-0.043558
-0.061483
-0.077869
-0.090657
-0.09824
-0.099773
-0.09522
-0.085251
-0.07103
-0.053938
-0.035221
-0.015713
0.004246
0.024691
0.04564
0.066698
0.086885
0.104714
0.118569
0.127271
0.130466
0.128682
0.123181
0.115561
0.107244
0.098982
0.090713
0.081834
0.071727
0.060204
0.047839
0.035943
0.026175
0.020244
0.01942
0.024154
0.034132
0.048615
0.066687
0.087356
0.109667
0.132809
0.155841
0.177173
0.194612
0.205984
0.209801
0.205717
0.194827
0.179804
0.164565
0.15309
0.148229
0.151014
0.16048
0.174021
0.188158
0.199574
0.205995
0.20655
0.201777
0.193106
0.181982
0.169177
0.154632
0.137931
0.11909
0.098908
0.07889
0.061089
0.047894
0.041555
0.043581
0.054478
0.073729
0.099787
0.130236
0.162199
0.192883
0.21993
0.241395
0.255759
0.262521
0.262854
0.259653
0.256829
0.258361
0.267408
0.224422
0.313258
0.348507
0.388639
0.430152
0.469553
0.504062
0.532329
0.554589
0.572146
0.586587
0.599269
0.611223
0.62318
0.635635
0.648861
0.662773
0.676612
0.688678
0.696418
0.696885
0.718503
0.701879
0.664959
0.579973
0.520538
0.455568
0.391481
0.302446
0.247069
0.180495
0.177407
0.245414
0.248286
0.281044
0.281724
0.267167
0.214243
0.183727
0.147796
0.110354
0.074802
0.043286
0.016702
-0.004947
-0.022095
-0.035348
-0.045459
-0.053118
-0.058617
-0.061854
-0.062635
-0.060974
-0.057282
-0.052379
-0.047486
-0.044107
-0.043767
-0.047554
-0.055794
-0.067931
-0.082564
-0.097643
-0.111058
-0.121446
-0.128608
-0.133517
-0.137782
-0.142928
-0.149693
-0.157563
-0.164723
-0.168508
-0.166151
-0.155424
-0.135146
-0.105592
-0.068421
-0.026005
0.019373
0.066063
0.113357
0.161584
0.211486
0.263042
0.314551
0.362681
0.402945
0.474128
0.540821
0.528004
0.445266
0.374032
0.26345
0.181577
0.097819
0.01911
-0.085803
-0.141048
-0.149282
-0.181189
-0.204228
-0.221449
-0.235333
-0.247117
-0.256644
-0.262773
-0.264137
-0.259861
-0.250118
-0.236447
-0.221566
-0.208728
-0.201001
-0.200606
-0.208367
-0.223281
-0.242509
-0.261911
-0.277057
-0.284251
-0.312131
-0.267853
-0.245533
-0.217779
-0.189041
-0.163757
-0.145457
-0.136264
-0.136647
-0.145252
-0.159154
-0.174837
-0.189298
-0.200511
-0.207523
-0.210659
-0.211607
-0.212814
-0.216224
-0.222387
-0.230403
-0.238206
-0.243113
-0.242635
-0.235503
-0.222195
-0.204605
-0.185417
-0.167622
-0.153936
-0.14613
-0.144423
-0.147317
-0.152082
-0.155768
-0.1561
-0.151886
-0.143017
-0.13043
-0.116048
-0.102307
-0.091334
-0.084319
-0.081242
-0.080747
-0.080439
-0.077838
-0.07162
-0.062154
-0.051053
-0.040447
-0.03236
-0.028051
-0.027361
-0.028398
-0.027849
-0.021948
-0.039024
0.01729
0.052373
0.09558
0.142775
0.188595
0.227676
0.291375
0.30854
0.306452
0.271198
0.262587
0.254963
0.222013
0.256705
0.267841
0.283067
0.298085
0.308356
0.310637
0.303883
0.289276
0.269568
0.248319
0.229361
0.216091
0.21063
0.213289
0.222659
0.236077
0.250163
0.261477
0.267263
0.265822
0.256587
0.240075
0.217728
0.191468
0.16317
0.134384
0.106457
0.080713
0.05862
0.041885
0.0322
0.030545
0.03647
0.047878
0.061265
0.072335
0.107186
0.136759
0.056923
0.033278
0.004671
-0.024359
-0.049461
-0.067552
-0.077466
-0.079943
-0.07682
-0.070046
-0.061121
-0.051193
-0.04136
-0.03284
-0.026997
-0.025186
-0.028503
-0.037195
-0.050073
-0.064401
-0.076606
-0.08338
-0.082619
-0.073975
-0.059024
-0.040894
-0.023271
-0.009248
-0.000544
0.002742
0.001905
-0.00093
-0.003623
-0.004859
-0.004412
-0.002892
-0.001386
-0.001111
-0.003088
-0.007848
-0.015247
-0.024557
-0.034635
-0.04423
-0.052227
-0.057611
-0.059328
-0.056338
-0.04773
-0.032898
-0.011815
0.014638
0.044449
0.074532
0.101115
0.120544
0.162483
0.159937
0.11894
0.101336
0.080024
0.058914
0.041592
0.030547
0.026818
0.030103
0.039164
0.052254
0.067474
0.082809
0.096056
0.105064
0.108483
0.106415
0.100307
0.092286
0.084356
0.077953
0.073687
0.071249
0.069517
0.067138
0.06341
0.05877
0.054674
0.05315
0.056087
0.06427
0.076854
0.091858
0.107218
0.121404
0.133613
0.143849
0.152833
0.161412
0.169699
0.176684
0.180485
0.178858
0.169806
0.152417
0.127628
0.098222
0.0681
0.041449
0.022102
0.012958
0.015544
0.029879
0.054688
0.087725
0.126088
0.166561
0.205928
0.24116
0.269462
0.288471
0.296672
0.293861
0.28114
0.260548
0.234611
0.205937
0.17685
0.149147
0.124066
0.102338
0.084247
0.069598
0.057812
0.048153
0.039909
0.032388
0.025096
0.018183
0.012472
0.008921
0.007996
0.009574
0.013203
0.018344
0.024424
0.030821
0.036777
0.041226
0.042731
0.039687
0.030603
0.014438
-0.00878
-0.037241
-0.067182
-0.093679
-0.147012
-0.155757
-0.143808
-0.097765
-0.074887
-0.049633
-0.026314
-0.008242
0.002613
0.005771
0.002102
-0.00688
-0.020002
-0.03695
-0.057957
-0.083176
-0.112244
-0.144201
-0.177543
-0.210401
-0.240941
-0.267778
-0.290113
-0.307483
-0.319424
-0.325166
-0.32364
-0.31382
-0.295338
-0.269016
-0.236918
-0.201907
-0.166926
-0.134326
-0.105399
-0.080349
-0.058583
-0.039354
-0.022495
-0.009033
-0.001312
-0.002257
-0.014131
-0.037498
-0.070919
-0.111243
-0.154181
-0.194959
-0.258992
-0.284811
-0.293344
-0.286028
-0.235979
-0.202847
-0.158293
-0.104681
-0.045067
0.017025
0.077883
0.133551
0.179943
0.248016
0.270219
0.271887
0.251795
0.240403
0.140353
0.033711
-0.044293
-0.12341
-0.198113
-0.294241
-0.317788
-0.359084
-0.388374
-0.407334
-0.418176
-0.423127
-0.424052
-0.422339
-0.419018
-0.414881
-0.410474
-0.406014
-0.401551
-0.397256
-0.393613
-0.391243
-0.390709
-0.392497
-0.397077
-0.404812
-0.415639
-0.428945
-0.443649
-0.458298
-0.471162
-0.480544
-0.485092
-0.484041
-0.477329
-0.465489
-0.44948
-0.430591
-0.410399
-0.390418
-0.371697
-0.354839
-0.34031
-0.328513
-0.319533
-0.312944
-0.307947
-0.303662
-0.299305
-0.294355
-0.288842
-0.2835
-0.279333
-0.277214
-0.279049
-0.285436
-0.295936
-0.308919
-0.32183
-0.331787
-0.33646
-0.334907
-0.327816
-0.317066
-0.30488
-0.29317
-0.283227
-0.275554
-0.269872
-0.265607
-0.262504
-0.260856
-0.261204
-0.263853
-0.268581
-0.27432
-0.278938
-0.279607
-0.27383
-0.260391
-0.239788
-0.214048
-0.186363
-0.160585
-0.140527
-0.129246
-0.12838
-0.137688
-0.155045
-0.176964
-0.199287
-0.217968
-0.2297
-0.232372
-0.225323
-0.209296
-0.186238
-0.158884
-0.130211
-0.102852
-0.078706
-0.058783
-0.043333
-0.032007
-0.023896
-0.017611
-0.011643
-0.004953
0.002683
0.010779
0.018338
0.02406
0.02688
0.026597
0.02406
0.020758
0.01832
0.018153
0.020998
0.026456
0.032958
0.038291
0.040363
0.037757
0.030098
0.018166
0.003436
-0.012737
-0.029621
-0.047036
-0.065016
-0.083468
-0.10188
-0.11912
-0.133554
-0.14351
-0.147808
-0.14597
-0.138299
-0.125865
-0.110414
-0.093888
-0.077933
-0.063754
-0.052289
-0.044297
-0.040252
-0.040271
-0.044031
-0.050738
-0.059139
-0.067849
-0.075883
-0.082969
-0.089431
-0.095916
-0.103102
-0.11116
-0.11908
-0.124404
-0.123955
-0.145763
-0.130061
-0.101105
-0.035618
-0.000808
0.093663
0.090872
0.097913
0.066559
0.05943
0.04656
0.031168
0.015323
-0.000297
-0.015554
-0.030135
-0.043532
-0.054963
-0.063131
-0.066516
-0.064132
-0.055985
-0.042927
-0.026439
-0.008586
0.00828
0.0221
0.031435
0.035475
0.034115
0.028241
0.019826
0.011458
0.005588
0.003902
0.00697
0.014357
0.024861
0.036895
0.049006
0.060428
0.071225
0.082004
0.09343
0.105881
0.119234
0.132717
0.145113
0.155255
0.162471
0.166539
0.167532
0.165887
0.162399
0.157912
0.153085
0.148399
0.144097
0.140086
0.136056
0.13182
0.127453
0.123187
0.119375
0.116512
0.115026
0.114923
0.11571
0.116702
0.117263
0.116923
0.115796
0.11497
0.116183
0.120897
0.129558
0.14151
0.155173
0.168397
0.179142
0.186166
0.189208
0.188749
0.185751
0.181443
0.176796
0.171877
0.165892
0.158089
0.148663
0.138906
0.130721
0.126051
0.126386
0.132262
0.142955
0.156704
0.17118
0.184048
0.193426
0.198412
0.199321
0.197383
0.194064
0.190553
0.187696
0.186043
0.185672
0.185911
0.185353
0.18221
0.174892
0.162541
0.145484
0.125477
0.105407
0.088481
0.077291
0.073239
0.0764
0.085746
0.099633
0.116268
0.133855
0.150629
0.165101
0.176342
0.183973
0.187966
0.188628
0.186809
0.184002
0.18196
0.181988
0.184378
0.18823
0.191774
0.193101
0.190894
0.18483
0.175474
0.163752
0.150509
0.13656
0.122869
0.110266
0.099055
0.089205
0.080856
0.074219
0.069134
0.065
0.06111
0.056928
0.052162
0.046891
0.041723
0.037472
0.034589
0.032881
0.031804
0.030856
0.029822
0.028789
0.028113
0.028232
0.029266
0.030692
0.031349
0.030116
0.026649
0.020445
0.012693
0.005553
0.001849
0.004467
0.01571
0.036886
0.068235
0.109062
0.158083
0.213831
0.274776
0.339046
0.404152
0.467082
0.52466
0.573885
0.613092
0.673316
0.686003
0.680372
0.657344
0.617045
0.558586
0.462847
0.390584
0.316682
0.246242
0.151472
0.099697
0.091537
0.063973
0.047771
0.041182
0.042154
0.048637
0.058807
0.071293
0.085122
0.09935
0.112111
0.122765
0.130697
0.135663
0.137753
0.137262
0.134635
0.130515
0.125762
0.121519
0.119008
0.119095
0.121936
0.127119
0.134123
0.14253
0.151867
0.161408
0.170276
0.177699
0.183132
0.186183
0.18664
0.184577
0.180295
0.174173
0.166608
0.158018
0.148765
0.139076
0.129144
0.119417
0.110836
0.104781
0.102804
0.106311
0.116097
0.131676
0.150972
0.170877
0.188346
0.20117
0.208318
0.21006
0.207899
0.204106
0.200991
0.20034
0.203232
0.209906
0.219671
0.231232
0.243288
0.254881
0.265347
0.274302
0.281829
0.288562
0.295305
0.302514
0.310072
0.317348
0.323443
0.327526
0.32929
0.329227
0.328536
0.328825
0.33078
0.335879
0.344359
0.35493
0.365577
0.374167
0.378963
0.379042
0.374543
0.36662
0.357189
0.348517
0.342683
0.341042
0.34403
0.351347
0.362172
0.375244
0.388998
0.401871
0.412602
0.420498
0.425667
0.428979
0.43168
0.434932
0.439619
0.446233
0.454508
0.463243
0.470697
0.475081
0.474807
0.468657
0.456042
0.43714
0.41268
0.38377
0.352018
0.319448
0.287984
0.259022
0.23343
0.211634
0.193374
0.177491
0.162256
0.145971
0.127422
0.106166
0.082513
0.057313
0.031746
0.007119
-0.015424
-0.035273
-0.052401
-0.066965
-0.078866
-0.087552
-0.092147
-0.091714
-0.085678
-0.074222
-0.058501
-0.040402
-0.02206
-0.005447
0.007953
0.017362
0.022848
0.025268
0.025772
0.025128
0.023543
0.021084
0.01808
0.015038
0.012381
0.010358
0.009034
0.008218
0.007478
0.006296
0.004304
0.001423
-0.002181
-0.006253
-0.010481
-0.014441
-0.017664
-0.019923
-0.021305
-0.021913
-0.0215
-0.019575
-0.015777
-0.010005
-0.002389
0.006575
0.015884
0.024205
0.030397
0.033905
0.03469
0.032981
0.029172
0.023867
0.017724
0.011111
0.003963
-0.003941
-0.012773
-0.022786
-0.034327
-0.047527
-0.062042
-0.077297
-0.092815
-0.108019
-0.121934
-0.133517
-0.142348
-0.148758
-0.153346
-0.156537
-0.158585
-0.159707
-0.160062
-0.159818
-0.159329
-0.159213
-0.160165
-0.162751
-0.167456
-0.174655
-0.184226
-0.195245
-0.206235
-0.215759
-0.222865
-0.227244
-0.229158
-0.229193
-0.228
-0.226315
-0.225085
-0.225277
-0.227326
-0.230777
-0.234515
-0.237233
-0.23763
-0.234603
-0.227604
-0.216959
-0.203864
-0.190186
-0.178165
-0.16997
-0.167087
-0.169899
-0.177672
-0.188882
-0.201571
-0.213618
-0.223094
-0.228627
-0.229722
-0.226942
-0.22183
-0.216504
-0.213072
-0.213105
-0.217261
-0.225167
-0.235611
-0.24699
-0.257788
-0.266948
-0.274078
-0.279413
-0.283636
-0.287378
-0.290741
-0.29324
-0.294201
-0.293257
-0.290631
-0.287237
-0.284524
-0.283994
-0.286587
-0.292461
-0.301169
-0.311854
-0.323427
-0.334945
-0.346007
-0.356786
-0.367618
-0.378462
-0.388665
-0.397083
-0.402506
-0.404214
-0.402326
-0.397728
-0.391819
-0.386255
-0.382602
-0.381866
-0.384162
-0.3889
-0.395168
-0.402015
-0.408641
-0.414552
-0.419606
-0.423886
-0.427436
-0.430147
-0.431869
-0.432495
-0.431877
-0.429729
-0.4258
-0.42017
-0.413354
-0.406126
-0.399335
-0.393905
-0.390764
-0.390586
-0.393487
-0.398944
-0.40592
-0.413069
-0.418994
-0.422518
-0.422866
-0.419642
-0.412717
-0.402016
-0.387404
-0.368645
-0.345467
-0.317667
-0.285107
-0.247657
-0.205245
-0.157981
-0.106297
-0.051104
0.006032
0.06268
0.115396
0.159819
0.231663
0.254249
0.250738
0.250913
0.160788
0.078595
-0.034925
-0.12053
-0.232889
-0.35159
-0.42026
-0.444696
-0.399816
-0.41408
-0.419413
-0.419145
-0.415969
-0.411625
-0.40704
-0.402693
-0.398788
-0.39535
-0.392338
-0.389607
-0.386622
-0.382371
-0.375828
-0.366511
-0.354607
-0.340764
-0.326072
-0.311999
-0.300029
-0.291195
-0.285993
-0.284571
-0.286462
-0.28995
-0.291833
-0.287973
-0.304602
-0.286602
-0.281772
-0.157287
-0.099554
-0.041487
0.084678
0.136929
0.119873
0.114097
0.063471
0.040388
0.012687
-0.013317
-0.032672
-0.074043
-0.042946
-0.035291
-0.022697
-0.008727
0.003326
0.011302
0.014709
0.014515
0.012429
0.010164
0.008873
0.008861
0.009675
0.010464
0.01037
0.008825
0.005854
0.002234
-0.000711
-0.001603
0.000622
0.006401
0.015349
0.026359
0.038049
0.049278
0.059574
0.069412
0.080162
0.093524
0.110654
0.131506
0.154696
0.177935
0.198661
0.214705
0.224931
0.229668
0.230687
0.230635
0.232305
0.237928
0.248681
0.264434
0.28388
0.304945
0.325294
0.342757
0.355589
0.362711
0.363846
0.35947
0.350586
0.338461
0.324421
0.309744
0.295588
0.282926
0.272588
0.265345
0.261897
0.262694
0.267636
0.275864
0.285816
0.295497
0.302904
0.306405
0.304856
0.297596
0.284451
0.265785
0.242614
0.216611
0.189852
0.164388
0.141823
0.123138
0.108756
0.098526
0.091794
0.0876
0.085013
0.083412
0.08253
0.082338
0.082875
0.083942
0.084926
0.085003
0.083537
0.080305
0.075238
0.068103
0.058614
0.046717
0.032647
0.016924
0.000509
-0.015126
-0.028299
-0.037664
-0.042513
-0.042849
-0.039376
-0.033342
-0.026128
-0.018718
-0.0114
-0.003951
0.003891
0.012108
0.020295
0.027699
0.033355
0.036421
0.036687
0.034888
0.032376
0.030475
0.03003
0.031265
0.03368
0.036034
0.036726
0.034497
0.028962
0.020701
0.011038
0.001761
-0.005371
-0.009367
-0.010465
-0.0098
-0.008601
-0.007705
-0.007602
-0.008481
-0.010075
-0.011741
-0.012953
-0.01379
-0.01493
-0.017336
-0.021806
-0.028455
-0.036348
-0.043695
-0.048518
-0.049334
-0.04551
-0.037428
-0.026575
-0.015266
-0.006057
-0.001093
-0.001602
-0.007601
-0.017907
-0.030519
-0.043151
-0.053616
-0.060039
-0.061185
-0.05684
-0.04789
-0.035926
-0.022754
-0.01017
0.000204
0.007174
0.010142
0.008971
0.003743
-0.005253
-0.017359
-0.031529
-0.046386
-0.060194
-0.0709
-0.076526
-0.076342
-0.069175
-0.055314
-0.035908
-0.012999
0.010651
0.032103
0.048957
0.059835
0.064442
0.063372
0.057797
0.049136
0.038755
0.027719
0.016775
0.006614
-0.001909
-0.007967
-0.011
-0.010809
-0.007607
-0.002245
0.003739
0.008598
0.011118
0.010952
0.008516
0.004754
0.000949
-0.001606
-0.002145
-0.000743
0.001789
0.004276
0.005605
0.005063
0.002531
-0.001371
-0.005204
-0.007055
-0.005338
0.000349
0.00892
0.018
0.024487
0.025459
0.019277
0.006252
-0.011595
-0.031397
-0.050288
-0.065915
-0.07676
-0.082319
-0.082905
-0.079175
-0.071814
-0.061578
-0.049541
-0.037267
-0.026751
-0.020085
-0.01879
-0.023168
-0.032175
-0.043897
-0.056325
-0.067892
-0.077687
-0.085503
-0.091609
-0.096282
-0.09958
-0.101371
-0.101404
-0.099377
-0.09506
-0.088518
-0.08024
-0.071023
-0.061616
-0.052348
-0.042894
-0.032134
-0.017957
0.002526
0.032279
0.036853
0.091031
0.191781
0.26508
0.342479
0.418547
0.487552
0.578672
0.623537
0.649173
0.682046
0.661248
0.57985
0.506348
0.386019
0.294206
0.199001
0.107728
-0.013994
-0.119276
-0.13258
-0.15425
-0.13419
-0.137286
-0.132142
-0.122444
-0.11098
-0.09953
-0.089059
-0.080124
-0.073271
-0.069147
-0.068229
-0.070547
-0.07566
-0.082716
-0.090547
-0.097915
-0.103799
-0.107597
-0.10916
-0.108765
-0.107022
-0.104574
-0.101808
-0.098868
-0.09583
-0.092849
-0.090212
-0.088321
-0.087599
-0.088273
-0.090241
-0.093094
-0.096329
-0.099501
-0.10231
-0.104559
-0.106061
-0.10662
-0.106192
-0.10499
-0.103396
-0.101657
-0.099688
-0.097213
-0.093966
-0.089833
-0.085034
-0.080215
-0.076331
-0.074341
-0.074874
-0.078109
-0.083787
-0.091143
-0.098904
-0.105551
-0.109884
-0.111474
-0.110619
-0.107996
-0.104375
-0.100474
-0.096822
-0.093544
-0.090339
-0.086819
-0.082773
-0.078034
-0.072282
-0.065259
-0.057101
-0.048324
-0.039498
-0.03098
-0.022863
-0.014911
-0.006479
0.003264
0.014866
0.028347
0.043255
0.058793
0.073957
0.087762
0.099615
0.109549
0.118229
0.126693
0.135849
0.14603
0.156794
0.167096
0.175677
0.18152
0.184189
0.183978
0.181824
0.179052
0.177086
0.177193
0.180166
0.186002
0.19383
0.202119
0.209046
0.212905
0.212443
0.207118
0.197173
0.183453
0.167081
0.149167
0.130564
0.111783
0.093008
0.074221
0.05539
0.0366
0.018044
-0.000049
-0.017442
-0.033845
-0.048747
-0.061314
-0.070708
-0.076661
-0.079817
-0.0816
-0.083796
-0.088062
-0.095399
-0.105603
-0.117104
-0.127422
-0.133986
-0.134979
-0.129957
-0.120269
-0.10888
-0.099403
-0.094939
-0.097325
-0.106835
-0.12232
-0.141635
-0.162116
-0.181032
-0.196054
-0.20572
-0.209707
-0.208815
-0.20473
-0.199753
-0.196351
-0.196514
-0.201193
-0.210152
-0.222132
-0.235093
-0.246604
-0.254481
-0.257363
-0.255068
-0.248621
-0.239882
-0.230961
-0.223685
-0.219296
-0.218403
-0.221027
-0.22668
-0.23448
-0.243378
-0.252375
-0.260649
-0.267613
-0.272938
-0.276464
-0.277996
-0.277276
-0.274169
-0.268892
-0.261904
-0.253536
-0.243935
-0.2333
-0.221851
-0.209591
-0.196438
-0.182716
-0.169365
-0.157589
-0.148481
-0.143049
-0.142146
-0.146048
-0.154238
-0.165693
-0.179131
-0.193015
-0.205685
-0.215945
-0.223557
-0.229141
-0.233743
-0.23866
-0.245307
-0.254777
-0.267212
-0.281607
-0.296074
-0.308157
-0.315356
-0.315872
-0.30909
-0.295533
-0.276644
-0.254559
-0.231817
-0.210834
-0.193411
-0.180508
-0.172278
-0.16822
-0.167461
-0.169046
-0.17203
-0.175429
-0.178331
-0.180281
-0.18148
-0.182441
-0.183535
-0.184779
-0.185934
-0.186756
-0.187212
-0.187532
-0.188133
-0.189491
-0.19197
-0.195735
-0.200788
-0.206935
-0.213635
-0.220028
-0.225308
-0.22918
-0.231957
-0.234343
-0.237169
-0.241154
-0.246693
-0.253654
-0.261243
-0.268087
-0.272528
-0.273042
-0.268633
-0.25909
-0.245099
-0.228181
-0.210311
-0.193452
-0.17919
-0.16848
-0.161445
-0.157525
-0.15598
-0.156357
-0.158533
-0.162519
-0.168355
-0.176059
-0.1855
-0.19627
-0.207761
-0.219233
-0.22977
-0.23829
-0.243898
-0.246309
-0.245948
-0.243762
-0.240985
-0.238852
-0.238279
-0.239565
-0.242218
-0.245039
-0.246358
-0.244273
-0.236985
-0.223149
-0.202011
-0.173214
-0.136483
-0.091569
-0.038457
0.022354
0.089634
0.161345
0.234708
0.306321
0.372331
0.428816
0.506743
0.537912
0.549534
0.540799
0.510458
0.456568
0.379219
0.263183
0.175864
0.089798
-0.059402
-0.136588
-0.145916
-0.16727
-0.146143
-0.14551
-0.133635
-0.114026
-0.090315
-0.06606
-0.044376
-0.0278
-0.018125
-0.015998
-0.020546
-0.029542
-0.040097
-0.049334
-0.054875
-0.055284
-0.050242
-0.040222
-0.025978
-0.008277
0.012107
0.034308
0.057261
0.079626
0.099917
0.116789
0.129175
0.136387
0.138432
0.136268
0.131537
0.125986
0.121067
0.117764
0.116334
0.116232
0.116568
0.116644
0.116002
0.114277
0.111299
0.107266
0.102662
0.097985
0.093704
0.09042
0.088943
0.09024
0.09529
0.104749
0.118559
0.1359
0.155487
0.175892
0.195697
0.213703
0.22921
0.242005
0.252155
0.259976
0.266162
0.271766
0.277967
0.285779
0.295907
0.308589
0.323351
0.338787
0.352809
0.363321
0.368911
0.369271
0.365395
0.359531
0.354556
0.352975
0.356219
0.364586
0.377517
0.393894
0.412421
0.432109
0.452477
0.473288
0.49438
0.515721
0.537337
0.559097
0.580697
0.60184
0.622366
0.642259
0.661631
0.680652
0.699268
0.71699
0.733098
0.747104
0.758971
0.768945
0.777345
0.784444
0.790184
0.793889
0.794343
0.790105
0.779848
0.762789
0.739176
0.710619
0.679953
0.650514
0.625144
0.605427
0.591428
0.58187
0.57469
0.56779
0.559749
0.550177
0.539608
0.529013
0.519325
0.511206
0.50494
0.500393
0.497204
0.494999
0.493427
0.492053
0.49041
0.488147
0.485027
0.480918
0.475982
0.470858
0.466498
0.463758
0.463113
0.464628
0.467909
0.472064
0.476021
0.479076
0.481117
0.482524
0.483967
0.486307
0.490568
0.497737
0.50852
0.523209
0.541512
0.562297
0.583519
0.602621
0.617222
0.625664
0.627338
0.622845
0.614048
0.603947
0.596147
0.593925
0.599259
0.612295
0.631501
0.654313
0.677951
0.700146
0.719563
0.735896
0.749617
0.761507
0.772206
0.78177
0.789304
0.793172
0.791761
0.784166
0.770554
0.752076
0.730091
0.704988
0.678892
0.651649
0.62281
0.592249
0.560451
0.528529
0.498159
0.471382
0.450032
0.435086
0.426316
0.422229
0.42025
0.417399
0.411313
0.400991
0.38679
0.369897
0.351859
0.334376
0.319126
0.307566
0.300817
0.299252
0.301816
0.305819
0.307618
0.303673
0.326298
0.347223
0.236273
0.196111
0.151987
0.108067
0.067849
0.033395
0.004943
-0.018891
-0.040082
-0.059881
-0.078282
-0.094359
-0.106911
-0.115122
-0.118827
-0.118427
-0.114778
-0.109044
-0.102322
-0.09515
-0.087273
-0.077924
-0.066304
-0.051964
-0.035083
-0.016659
0.001584
0.017662
0.029935
0.037436
0.040042
0.038619
0.034849
0.030666
0.027811
0.027442
0.029761
0.034002
0.038801
0.042533
0.043594
0.040733
0.033236
0.020775
0.003257
-0.019058
-0.045304
-0.073946
-0.102969
-0.1301
-0.15299
-0.169568
-0.178604
-0.180102
-0.175129
-0.165276
-0.15216
-0.137203
-0.121717
-0.106944
-0.093962
-0.083747
-0.077291
-0.075322
-0.07781
-0.083917
-0.09243
-0.102079
-0.11163
-0.120191
-0.127651
-0.134633
-0.141748
-0.148932
-0.155519
-0.16074
-0.164104
-0.1656
-0.165881
-0.166373
-0.169643
-0.177787
-0.191826
-0.212577
-0.239688
-0.271647
-0.306109
-0.340295
-0.371172
-0.395656
-0.4112
-0.416382
-0.411012
-0.395965
-0.372856
-0.343611
-0.309909
-0.272823
-0.232894
-0.190306
-0.145016
-0.09703
-0.046878
0.003961
0.053076
0.097494
0.133969
0.190482
0.206538
0.203848
0.180671
0.135546
0.040393
-0.026082
-0.097307
-0.167493
-0.261498
-0.317914
-0.326278
-0.3568
-0.378502
-0.394519
-0.40776
-0.419951
-0.430456
-0.438884
-0.445533
-0.44991
-0.451855
-0.451916
-0.451456
-0.45212
-0.455083
-0.460653
-0.468325
-0.477094
-0.485875
-0.493846
-0.50064
-0.506303
-0.511014
-0.514835
-0.517668
-0.519458
-0.520365
-0.520746
-0.521047
-0.521733
-0.523179
-0.525542
-0.528688
-0.532256
-0.535792
-0.538887
-0.541254
-0.542846
-0.543963
-0.545181
-0.547075
-0.549975
-0.553797
-0.557793
-0.56049
-0.560132
-0.555265
-0.545097
-0.529638
-0.50963
-0.486327
-0.461306
-0.436419
-0.41365
-0.394186
-0.379176
-0.369579
-0.365175
-0.365488
-0.369846
-0.377303
-0.386525
-0.395728
-0.402915
-0.406443
-0.4054
-0.39949
-0.38878
-0.373719
-0.355274
-0.334921
-0.314457
-0.295592
-0.279392
-0.265874
-0.254054
-0.242463
-0.229814
-0.215409
-0.199254
-0.182024
-0.164834
-0.148842
-0.134889
-0.123252
-0.113519
-0.104601
-0.095071
-0.083858
-0.070881
-0.057146
-0.044415
-0.034848
-0.030516
-0.032679
-0.041305
-0.055141
-0.072138
-0.089855
-0.105893
-0.118531
-0.127236
-0.132544
-0.135459
-0.136949
-0.137849
-0.138827
-0.140294
-0.142563
-0.146224
-0.152191
-0.161348
-0.174148
-0.190379
-0.209061
-0.228501
-0.246631
-0.261658
-0.272621
-0.279447
-0.282646
-0.283065
-0.281792
-0.280019
-0.278934
-0.279826
-0.284167
-0.29325
-0.307559
-0.326443
-0.348299
-0.370968
-0.392097
-0.409637
-0.422515
-0.430979
-0.436326
-0.440359
-0.444878
-0.451191
-0.459642
-0.469435
-0.479002
-0.486479
-0.489948
-0.487869
-0.47972
-0.466395
-0.450097
-0.433818
-0.420679
-0.413151
-0.412269
-0.417343
-0.426311
-0.436554
-0.4456
-0.451629
-0.453878
-0.452634
-0.448709
-0.442935
-0.436041
-0.428706
-0.421562
-0.415165
-0.409939
-0.406081
-0.403461
-0.40158
-0.399699
-0.397216
-0.39406
-0.390769
-0.388187
-0.387059
-0.387739
-0.390037
-0.393215
-0.39623
-0.398162
-0.398663
-0.398117
-0.397488
-0.397998
-0.400716
-0.406182
-0.414179
-0.423734
-0.43341
-0.441747
-0.447647
-0.450578
-0.450621
-0.448505
-0.445542
-0.443202
-0.4426
-0.444282
-0.448246
-0.453935
-0.460282
-0.466015
-0.470107
-0.472029
-0.471718
-0.469301
-0.46474
-0.457747
-0.44803
-0.435531
-0.42049
-0.403492
-0.385478
-0.367539
-0.35061
-0.335363
-0.322381
-0.312275
-0.305513
-0.302238
-0.302388
-0.305862
-0.312264
-0.320427
-0.32847
-0.334414
-0.336777
-0.334745
-0.328256
-0.318141
-0.305904
-0.292979
-0.280192
-0.267977
-0.256854
-0.24739
-0.239943
-0.23479
-0.232316
-0.232636
-0.235131
-0.238648
-0.242001
-0.244098
-0.243989
-0.241275
-0.236458
-0.230618
-0.224813
-0.219832
-0.216204
-0.213999
-0.212607
-0.210948
-0.208018
-0.203173
-0.196121
-0.186965
-0.176289
-0.16498
-0.153929
-0.143924
-0.135707
-0.129856
-0.12653
-0.125388
-0.125819
-0.127194
-0.128904
-0.130345
-0.130977
-0.130221
-0.12729
-0.121422
-0.112457
-0.101036
-0.088194
-0.074859
-0.061637
-0.048816
-0.036415
-0.024234
-0.011914
0.00098
0.014814
0.029694
0.045215
0.060403
0.073955
0.084763
0.092578
0.098224
0.103055
0.108316
0.114958
0.123638
0.13454
0.14715
0.16042
0.173103
0.183938
0.191873
0.196391
0.197605
0.195918
0.19158
0.184694
0.175578
0.164958
0.153911
0.143648
0.135172
0.129123
0.125834
0.125404
0.127706
0.132383
0.13881
0.146081
0.153129
0.158927
0.162633
0.163662
0.161852
0.157772
0.152744
0.148333
0.145647
0.144971
0.145886
0.14758
0.149158
0.149931
0.149573
0.148086
0.145816
0.14336
0.141287
0.139878
0.139039
0.138364
0.137301
0.135357
0.132402
0.128776
0.125227
0.122835
0.123105
0.128057
0.140032
0.161219
0.193209
0.236618
0.290822
0.353985
0.423385
0.495803
0.567792
0.635906
0.696898
0.747708
0.785355
0.843701
0.854725
0.842643
0.835531
0.738735
0.625213
0.542431
0.456165
0.372926
0.263133
0.199983
0.156032
0.150495
0.125566
0.109393
0.099868
0.095559
0.095763
0.100132
0.108199
0.119125
0.131699
0.144537
0.156418
0.166573
0.174833
0.181457
0.186731
0.190878
0.194037
0.194619
0.191804
0.185284
0.175667
0.164327
0.152861
0.142666
0.13473
0.129608
0.12752
0.128368
0.131703
0.136677
0.142141
0.147047
0.150855
0.153456
0.154963
0.155759
0.156548
0.158116
0.160928
0.164875
0.169197
0.172571
0.17363
0.171754
0.167431
0.161894
0.156476
0.152248
0.150077
0.150679
0.154486
0.161563
0.171593
0.183813
0.196969
0.209468
0.219792
0.226944
0.230555
0.230778
0.228318
0.224461
0.220742
0.218489
0.218755
0.222426
0.23014
0.242088
0.25799
0.277188
0.298559
0.320387
0.340641
0.357579
0.370254
0.378666
0.383609
0.386363
0.388274
0.390338
0.393061
0.396509
0.400508
0.405068
0.410642
0.417962
0.427709
0.440163
0.4549
0.470631
0.48548
0.497622
0.505788
0.509372
0.508413
0.503665
0.496504
0.488223
0.480077
0.472849
0.466714
0.46161
0.457449
0.454306
0.452385
0.45168
0.451693
0.451473
0.449781
0.445302
0.436989
0.424419
0.407975
0.388764
0.368361
0.348522
0.330794
0.316093
0.304486
0.2953
0.287481
0.279936
0.271722
0.26226
0.251505
0.239819
0.227676
0.215579
0.204263
0.194715
0.187686
0.183142
0.180382
0.178543
0.176741
0.173951
0.169189
0.161899
0.151958
0.139367
0.124306
0.107446
0.089777
0.072088
0.054823
0.038389
0.02339
0.01049
0.000322
-0.006383
-0.008806
-0.006337
0.001123
0.01298
0.027883
0.043847
0.058639
0.070343
0.077888
0.081417
0.082359
0.083127
0.086535
0.095012
0.109833
0.130691
0.155691
0.181725
0.205123
0.222501
0.231671
0.232124
0.224929
0.212394
0.197537
0.183353
0.172023
0.164608
0.161252
0.161455
0.164176
0.168086
0.171856
0.174425
0.174556
0.171219
0.164161
0.15384
0.141371
0.128429
0.116983
0.108863
0.105355
0.106961
0.113294
0.123054
0.134306
0.145048
0.153671
0.159055
0.160544
0.157996
0.151748
0.142426
0.130831
0.117857
0.104283
0.09058
0.076927
0.063406
0.050216
0.037677
0.026094
0.015715
0.00683
-0.000138
-0.004664
-0.006321
-0.005063
-0.001323
0.004178
0.010706
0.017696
0.02492
0.032531
0.040795
0.049816
0.059376
0.068711
0.076271
0.079834
0.077302
0.06769
0.051496
0.030401
0.006837
-0.016423
-0.036792
-0.052539
-0.063144
-0.069217
-0.072152
-0.073553
-0.074605
-0.075765
-0.07683
-0.07734
-0.076944
-0.075357
-0.072082
-0.066405
-0.057813
-0.046442
-0.033094
-0.018897
-0.005001
0.007614
0.018306
0.026906
0.033591
0.038565
0.041865
0.043277
0.042224
0.037831
0.029331
0.016633
0.000622
-0.017038
-0.034428
-0.049817
-0.062024
-0.07063
-0.075928
-0.078657
-0.079816
-0.080597
-0.082138
-0.085006
-0.088953
-0.093232
-0.097065
-0.09983
-0.101032
-0.100258
-0.097189
-0.091628
-0.083609
-0.073604
-0.062517
-0.051362
-0.041006
-0.032261
-0.026087
-0.023419
-0.024649
-0.029335
-0.036288
-0.043974
-0.051022
-0.056557
-0.060247
-0.062248
-0.063038
-0.063074
-0.062594
-0.061676
-0.060331
-0.058452
-0.055817
-0.052238
-0.047796
-0.042945
-0.038459
-0.035245
-0.034057
-0.035241
-0.038661
-0.04374
-0.049478
-0.054534
-0.057554
-0.057625
-0.054527
-0.048768
-0.041516
-0.034295
-0.028402
-0.024411
-0.022065
-0.020496
-0.018591
-0.015377
-0.010441
-0.004208
0.002143
0.007067
0.009244
0.008046
0.003539
-0.003789
-0.013212
-0.023861
-0.034884
-0.045675
-0.055892
-0.065233
-0.073411
-0.080301
-0.085872
-0.09011
-0.093266
-0.096088
-0.099497
-0.103951
-0.109194
-0.114474
-0.118681
-0.120489
-0.118762
-0.113103
-0.10409
-0.093156
-0.082472
-0.07472
-0.072243
-0.076042
-0.085448
-0.098476
-0.112379
-0.124266
-0.131894
-0.134402
-0.132469
-0.127915
-0.123076
-0.120055
-0.119979
-0.122608
-0.126585
-0.130219
-0.13225
-0.132281
-0.130812
-0.128876
-0.127529
-0.127456
-0.128791
-0.131215
-0.134229
-0.137389
-0.140495
-0.143647
-0.147121
-0.151038
-0.15502
-0.158195
-0.159545
-0.158325
-0.154383
-0.148246
-0.140983
-0.133889
-0.128119
-0.124387
-0.122869
-0.123197
-0.124602
-0.126207
-0.127441
-0.128453
-0.130139
-0.133691
-0.140001
-0.149303
-0.161095
-0.174238
-0.186941
-0.196881
-0.201468
-0.198156
-0.184784
-0.159908
-0.122915
-0.073955
-0.013917
0.05554
0.131972
0.212229
0.292642
0.369362
0.43875
0.497522
0.577547
0.610773
0.624169
0.615407
0.582494
0.523789
0.439759
0.322701
0.234121
0.147278
-0.00161
-0.037602
-0.084145
-0.089997
-0.114352
-0.127665
-0.132864
-0.132565
-0.128898
-0.123507
-0.117454
-0.111242
-0.105086
-0.099111
-0.093356
-0.087915
-0.083206
-0.080018
-0.079164
-0.081109
-0.085944
-0.093506
-0.10334
-0.114563
-0.125874
-0.135863
-0.143438
-0.147909
-0.148853
-0.146215
-0.140603
-0.133262
-0.125573
-0.118641
-0.113134
-0.109253
-0.106723
-0.105087
-0.10408
-0.10363
-0.103613
-0.103796
-0.103952
-0.103914
-0.103571
-0.102853
-0.101706
-0.100051
-0.097889
-0.095464
-0.093183
-0.091282
-0.089612
-0.0878
-0.085559
-0.082756
-0.07932
-0.075285
-0.070789
-0.065929
-0.060711
-0.055228
-0.049767
-0.044719
-0.040537
-0.037812
-0.037181
-0.038858
-0.042241
-0.045971
-0.048357
-0.047753
-0.042836
-0.033018
-0.018798
-0.001536
0.017182
0.035934
0.053522
0.0691
0.082422
0.093798
0.103706
0.11254
0.120754
0.129027
0.138109
0.148428
0.159879
0.171944
0.183819
0.194563
0.203394
0.209956
0.214464
0.217575
0.220113
0.222817
0.226138
0.230048
0.233884
0.236415
0.236243
0.232336
0.224434
0.21314
0.199648
0.185333
0.171486
0.159197
0.149216
0.141721
0.136205
0.131673
0.127041
0.121396
0.114054
0.104593
0.09295
0.079402
0.064487
0.048967
0.03373
0.019394
0.005951
-0.007059
-0.019998
-0.032824
-0.045258
-0.057058
-0.068121
-0.078522
-0.088624
-0.099058
-0.11039
-0.122796
-0.135938
-0.148879
-0.160104
-0.167978
-0.171513
-0.170831
-0.167001
-0.161601
-0.15634
-0.152713
-0.151764
-0.153899
-0.158721
-0.164971
-0.170849
-0.174582
-0.174846
-0.170952
-0.163006
-0.152067
-0.139895
-0.128437
-0.119437
-0.114115
-0.112733
-0.114321
-0.117082
-0.119249
-0.11959
-0.117432
-0.112693
-0.106027
-0.098746
-0.09244
-0.088495
-0.087625
-0.089692
-0.093976
-0.099632
-0.1059
-0.112167
-0.118067
-0.123455
-0.128153
-0.131823
-0.134088
-0.134567
-0.132773
-0.128297
-0.121395
-0.113258
-0.105502
-0.099441
-0.095766
-0.094427
-0.094639
-0.095257
-0.095381
-0.094672
-0.09335
-0.092229
-0.092552
-0.095292
-0.100474
-0.107225
-0.114305
-0.120367
-0.124001
-0.124118
-0.120478
-0.113648
-0.104634
-0.094798
-0.085915
-0.079829
-0.077856
-0.080536
-0.087771
-0.098786
-0.112043
-0.125427
-0.136828
-0.144763
-0.148663
-0.148789
-0.1459
-0.140895
-0.134646
-0.127958
-0.121558
-0.116002
-0.111474
-0.107712
-0.104225
-0.100663
-0.097122
-0.094123
-0.092273
-0.091909
-0.092997
-0.095229
-0.098146
-0.101181
-0.103635
-0.104742
-0.103951
-0.101287
-0.097396
-0.093262
-0.089877
-0.08799
-0.08797
-0.089796
-0.093185
-0.097641
-0.102413
-0.106596
-0.109415
-0.11054
-0.110149
-0.108449
-0.107148
-0.107445
-0.110156
-0.115271
-0.121973
-0.129092
-0.135382
-0.139574
-0.140758
-0.138816
-0.134369
-0.128396
-0.121952
-0.116034
-0.111269
-0.107495
-0.103903
-0.099613
-0.094075
-0.087117
-0.079005
-0.070552
-0.062951
-0.05724
-0.053993
-0.053425
-0.055508
-0.060018
-0.066613
-0.074898
-0.084422
-0.094568
-0.104438
-0.113003
-0.119327
-0.122799
-0.123419
-0.121863
-0.11906
-0.115556
-0.111215
-0.105474
-0.097764
-0.08776
-0.075689
-0.062752
-0.051133
-0.043268
-0.040913
-0.044642
-0.053634
-0.065559
-0.077107
-0.085274
-0.088466
-0.086677
-0.081065
-0.07352
-0.066199
-0.060764
-0.057781
-0.056839
-0.057094
-0.057587
-0.057478
-0.05644
-0.054876
-0.0536
-0.053253
-0.053982
-0.055492
-0.057199
-0.058461
-0.058968
-0.058937
-0.058862
-0.059128
-0.059843
-0.060873
-0.061736
-0.061588
-0.059534
-0.055021
-0.048068
-0.039287
-0.029722
-0.020502
-0.01232
-0.005176
0.001376
0.007793
0.014334
0.02099
0.027369
0.032653
0.035843
0.036096
0.032918
0.026326
0.016905
0.005623
-0.006468
-0.018461
-0.029688
-0.039732
-0.048385
-0.055561
-0.061225
-0.065476
-0.068636
-0.071192
-0.073571
-0.076026
-0.078755
-0.081993
-0.085905
-0.090427
-0.095177
-0.099434
-0.10222
-0.102474
-0.09925
-0.092031
-0.081
-0.067078
-0.051811
-0.03711
-0.024798
-0.016144
-0.011609
-0.010907
-0.013194
-0.017242
-0.021785
-0.025842
-0.028747
-0.029884
-0.028515
-0.023948
-0.01581
-0.004209
0.010128
0.025702
0.040411
0.052109
0.059109
0.060383
0.055733
0.04606
0.033316
0.019835
0.007417
-0.003065
-0.011372
-0.017497
-0.021539
-0.023724
-0.024347
-0.023692
-0.022047
-0.019772
-0.017297
-0.015131
-0.013933
-0.01447
-0.017325
-0.022557
-0.029651
-0.037791
-0.04604
-0.053293
-0.0583
-0.059955
-0.05764
-0.051473
-0.042853
-0.033196
-0.024183
-0.017298
-0.013344
-0.012395
-0.013879
-0.016827
-0.020302
-0.023807
-0.027376
-0.031403
-0.036375
-0.042616
-0.050007
-0.05771
-0.064184
-0.067549
-0.066006
-0.058111
-0.043
-0.020556
0.008664
0.043779
0.084055
0.129088
0.178706
0.232743
0.290737
0.35165
0.413565
0.473556
0.527996
0.604122
0.640753
0.658869
0.658488
0.64001
0.60312
0.547436
0.450159
0.37644
0.298795
0.222279
0.151532
0.059575
0.040241
0.002422
-0.023969
-0.040391
-0.048758
-0.051041
-0.048909
-0.043621
-0.03624
-0.027806
-0.019221
-0.011138
-0.004079
0.001461
0.005129
0.00681
0.006587
0.004688
0.001576
-0.002006
-0.005248
-0.007628
-0.009014
-0.009574
-0.009717
-0.009998
-0.010835
-0.012198
-0.013555
-0.014084
-0.012986
-0.009747
-0.004425
0.002269
0.009239
0.015423
0.020017
0.022516
0.022828
0.021431
0.019255
0.017304
0.016315
0.016629
0.018249
0.020968
0.024528
0.028875
0.034249
0.04094
0.048995
0.05825
0.068521
0.079569
0.090853
0.101493
0.110531
0.117277
0.12148
0.123351
0.123618
0.123436
0.12404
0.12643
0.131204
0.138491
0.147887
0.158477
0.169097
0.178694
0.186552
0.192341
0.19618
0.198643
0.200546
0.202579
0.205164
0.208529
0.212759
0.217813
0.223592
0.229944
0.236569
0.243016
0.248822
0.253614
0.257069
0.258938
0.259339
0.258982
0.259022
0.260755
0.265317
0.273326
0.284526
0.29777
0.311416
0.323742
0.333236
0.338965
0.34094
0.340052
0.337554
0.334476
0.331327
0.328048
0.324118
0.318818
0.311624
0.302457
0.291628
0.279651
0.267125
0.254558
0.242174
0.229874
0.217428
0.204667
0.19148
0.17777
0.163531
0.148853
0.133771
0.118161
0.10185
0.08491
0.06772
0.050834
0.03494
0.020828
0.00918
0.000344
-0.005714
-0.009326
-0.011125
-0.012088
-0.013385
-0.016083
-0.020899
-0.027979
-0.036696
-0.045722
-0.053495
-0.058823
-0.061252
-0.061219
-0.06006
-0.059622
-0.061546
-0.066697
-0.075027
-0.085686
-0.097254
-0.108151
-0.117259
-0.124319
-0.129712
-0.133997
-0.137654
-0.140932
-0.143594
-0.144847
-0.143765
-0.139876
-0.133332
-0.124712
-0.114844
-0.104692
-0.095096
-0.086479
-0.078898
-0.072411
-0.067236
-0.063585
-0.061509
-0.060908
-0.061484
-0.062535
-0.06281
-0.060759
-0.055032
-0.044947
-0.030838
-0.014163
0.002643
0.016671
0.025292
0.026941
0.021457
0.009913
-0.005683
-0.022713
-0.038418
-0.050502
-0.057498
-0.058748
-0.054194
-0.044276
-0.029888
-0.012227
0.007312
0.027096
0.045286
0.060148
0.070465
0.075664
0.075724
0.071177
0.063133
0.053017
0.042156
0.031698
0.022756
0.016289
0.012748
0.012032
0.013758
0.017253
0.021365
0.024646
0.025891
0.024429
0.020001
0.012669
0.002909
-0.008507
-0.020914
-0.033903
-0.047
-0.05936
-0.069748
-0.076718
-0.078976
-0.075867
-0.067739
-0.055979
-0.042688
-0.030266
-0.020908
-0.016046
-0.015991
-0.019964
-0.026468
-0.033864
-0.040966
-0.047327
-0.053001
-0.058015
-0.06214
-0.06501
-0.066333
-0.066084
-0.064629
-0.062738
-0.0614
-0.061461
-0.063326
-0.066863
-0.071386
-0.07576
-0.07877
-0.079624
-0.078278
-0.075472
-0.072449
-0.070448
-0.070214
-0.071805
-0.074662
-0.077743
-0.079721
-0.079233
-0.075145
-0.066821
-0.054422
-0.039008
-0.022349
-0.006442
0.006984
0.016767
0.022405
0.024024
0.022224
0.017931
0.012444
0.006711
0.001489
-0.002837
-0.006184
-0.008799
-0.011293
-0.014477
-0.019123
-0.025778
-0.034499
-0.04458
-0.054596
-0.06292
-0.06833
-0.070303
-0.069114
-0.065911
-0.06245
-0.060315
-0.060191
-0.06174
-0.064039
-0.066024
-0.066849
-0.066141
-0.064025
-0.061037
-0.057987
-0.055778
-0.055217
-0.056806
-0.0606
-0.066228
-0.073066
-0.080476
-0.087945
-0.095071
-0.10151
-0.107027
-0.111621
-0.115592
-0.1194
-0.123364
-0.127398
-0.131055
-0.133835
-0.135442
-0.135894
-0.13551
-0.134883
-0.134754
-0.135691
-0.137796
-0.140681
-0.143598
-0.145501
-0.145193
-0.14177
-0.135081
-0.125832
-0.115377
-0.105437
-0.097753
-0.0937
-0.093983
-0.098584
-0.106973
-0.118323
-0.13156
-0.14543
-0.158807
-0.171016
-0.181878
-0.191469
-0.199846
-0.206922
-0.212494
-0.216414
-0.218777
-0.219973
-0.220547
-0.221062
-0.222031
-0.223922
-0.226979
-0.230953
-0.235082
-0.238272
-0.239376
-0.237543
-0.232568
-0.22501
-0.215912
-0.206291
-0.196869
-0.188075
-0.180134
-0.173176
-0.16732
-0.162815
-0.160137
-0.159903
-0.162653
-0.168581
-0.177279
-0.187589
-0.197664
-0.20545
-0.209438
-0.209214
-0.205398
-0.199086
-0.191258
-0.182556
-0.173332
-0.163744
-0.153898
-0.143995
-0.134394
-0.125524
-0.117772
-0.111459
-0.106731
-0.103384
-0.100952
-0.099033
-0.097499
-0.0965
-0.096354
-0.09742
-0.099886
-0.103602
-0.108214
-0.11345
-0.119183
-0.125354
-0.131922
-0.138798
-0.145648
-0.151875
-0.156969
-0.160886
-0.163876
-0.166074
-0.167284
-0.16695
-0.164189
-0.157859
-0.146732
-0.129716
-0.105926
-0.074699
-0.035798
0.010418
0.063097
0.121126
0.183096
0.247057
0.310459
0.370338
0.423476
0.466427
0.528671
0.548401
0.547649
0.552948
0.505339
0.415477
0.262608
0.174638
0.057787
-0.030845
-0.094323
-0.132902
-0.123424
-0.13796
-0.14174
-0.138357
-0.130704
-0.120891
-0.11049
-0.100533
-0.09135
-0.082736
-0.074461
-0.066662
-0.059875
-0.054869
-0.052508
-0.053522
-0.058032
-0.065192
-0.073318
-0.08036
-0.084419
-0.084131
-0.07903
-0.069749
-0.057687
-0.044479
-0.031632
-0.020377
-0.011504
-0.005394
-0.00221
-0.001951
-0.00428
-0.008435
-0.013395
-0.018067
-0.021372
-0.022393
-0.020748
-0.016759
-0.011038
-0.004001
0.004028
0.012447
0.020459
0.027409
0.03276
0.035887
0.036214
0.033559
0.028345
0.02166
0.015204
0.011028
0.010986
0.016195
0.026866
0.042338
0.061147
0.081136
0.099744
0.114526
0.123762
0.127003
0.125268
0.120603
0.115299
0.111409
0.110557
0.113718
0.12094
0.131308
0.143305
0.15539
0.166483
0.176173
0.184582
0.192057
0.198912
0.205369
0.211647
0.21814
0.225381
0.233884
0.244138
0.25646
0.270863
0.28694
0.304007
0.321329
0.338264
0.354293
0.369009
0.38205
0.39298
0.401267
0.406504
0.408606
0.40772
0.404163
0.398502
0.391556
0.384173
0.376884
0.369742
0.362528
0.355033
0.347175
0.338978
0.330515
0.321762
0.312422
0.301959
0.289994
0.276666
0.262533
0.248208
0.234168
0.22072
0.207839
0.194965
0.181182
0.165769
0.148477
0.129427
0.109106
0.088485
0.068883
0.051556
0.037418
0.027062
0.020796
0.018539
0.019832
0.024002
0.030261
0.037662
0.045111
0.051498
0.055744
0.056739
0.05348
0.045469
0.033064
0.01754
0.000851
-0.014728
-0.027075
-0.034768
-0.03756
-0.036369
-0.032908
-0.029217
-0.027107
-0.027542
-0.030303
-0.03427
-0.038176
-0.04125
-0.043297
-0.044409
-0.04485
-0.045114
-0.045648
-0.046429
-0.046947
-0.046499
-0.04438
-0.039976
-0.033005
-0.023786
-0.013219
-0.002443
0.00749
0.015744
0.021776
0.025535
0.027633
0.029135
0.031018
0.033694
0.036838
0.039542
0.040591
0.038758
0.033212
0.023959
0.01192
-0.001289
-0.013636
-0.023098
-0.028197
-0.028397
-0.024104
-0.016382
-0.006697
0.003317
0.012133
0.018521
0.021698
0.021484
0.018401
0.01355
0.008177
0.003291
-0.000395
-0.002389
-0.002399
-0.000283
0.003888
0.009771
0.016759
0.024062
0.030759
0.035813
0.038148
0.036793
0.031045
0.020736
0.006663
-0.009144
-0.023687
-0.033764
-0.036767
-0.031118
-0.016578
0.005437
0.03185
0.058493
0.081033
0.095893
0.100939
0.095918
0.082413
0.063167
0.041162
0.019035
-0.001004
-0.017228
-0.028742
-0.035778
-0.039378
-0.040734
-0.040775
-0.040128
-0.039146
-0.037879
-0.036183
-0.03397
-0.031296
-0.028278
-0.025114
-0.022181
-0.019937
-0.018692
-0.018519
-0.01939
-0.02124
-0.023906
-0.027088
-0.03038
-0.033377
-0.035891
-0.038021
-0.039927
-0.041577
-0.042666
-0.042756
-0.041466
-0.038629
-0.034381
-0.029264
-0.024187
-0.020211
-0.018209
-0.018598
-0.021212
-0.025253
-0.029451
-0.032545
-0.033747
-0.032913
-0.030396
-0.026774
-0.022565
-0.018043
-0.0131
-0.007292
-0.000187
0.008217
0.017282
0.025781
0.032152
0.034963
0.033438
0.027783
0.019254
0.00996
0.002277
-0.001952
-0.001932
0.002012
0.008606
0.015918
0.021795
0.024499
0.023298
0.018635
0.011804
0.004502
-0.00157
-0.005108
-0.005595
-0.003386
0.000584
0.005306
0.010201
0.01535
0.021321
0.028691
0.037563
0.047362
0.056882
0.064537
0.068853
0.069009
0.065102
0.057981
0.048849
0.038808
0.02851
0.017967
0.006819
-0.004965
-0.01648
-0.026023
-0.031913
-0.033207
-0.029905
-0.022914
-0.013966
-0.005253
0.001288
0.004634
0.004913
0.003128
0.000648
-0.001311
-0.002112
-0.001861
-0.001187
-0.000914
-0.001945
-0.005189
-0.011231
-0.019851
-0.029998
-0.040291
-0.049514
-0.056807
-0.061741
-0.064397
-0.065477
-0.066203
-0.067886
-0.071423
-0.076869
-0.083225
-0.088711
-0.091514
-0.090586
-0.085929
-0.078339
-0.069095
-0.059781
-0.052123
-0.047717
-0.047659
-0.052203
-0.060529
-0.070832
-0.080818
-0.088353
-0.091907
-0.090771
-0.085237
-0.076624
-0.066919
-0.058198
-0.052316
-0.050634
-0.053674
-0.060886
-0.071014
-0.082758
-0.095071
-0.107092
-0.118105
-0.127493
-0.134651
-0.139071
-0.140423
-0.138376
-0.132241
-0.120766
-0.102246
-0.074858
-0.03719
0.011496
0.070975
0.139783
0.215098
0.292776
0.367598
0.43385
0.526195
0.568563
0.61741
0.575472
0.541348
0.460988
0.401959
0.331443
0.253921
0.174128
0.096844
0.026446
-0.069202
-0.116774
-0.116404
-0.139418
-0.152764
-0.159401
-0.162113
-0.162847
-0.162575
-0.161513
-0.159467
-0.156069
-0.150902
-0.143626
-0.134115
-0.12259
-0.109668
-0.09627
-0.083474
-0.072326
-0.063705
-0.058185
-0.055995
-0.056957
-0.060508
-0.065797
-0.071916
-0.078078
-0.083628
-0.087982
-0.09065
-0.091372
-0.090261
-0.087929
-0.085383
-0.083274
-0.082313
-0.082753
-0.084471
-0.087125
-0.090249
-0.093363
-0.096163
-0.098611
-0.10079
-0.10265
-0.103802
-0.103488
-0.100743
-0.094726
-0.085138
-0.072521
-0.058164
-0.043736
-0.03083
-0.020579
-0.013405
-0.009022
-0.006671
-0.005481
-0.004774
-0.00423
-0.003812
-0.003566
-0.003482
-0.003387
-0.002918
-0.001723
0.000342
0.003176
0.006547
0.010287
0.014462
0.019386
0.025477
0.033069
0.042265
0.052809
0.064104
0.075462
0.086329
0.096422
0.105689
0.114264
0.122334
0.129932
0.13669
0.141952
0.145233
0.146578
0.146541
0.145957
0.14578
0.146852
0.149641
0.154249
0.160643
0.168803
0.178635
0.189835
0.20192
0.214304
0.226206
0.236624
0.244526
0.249155
0.250277
0.248183
0.243492
0.23685
0.228678
0.219023
0.207571
0.193851
0.177624
0.159123
0.139075
0.118554
0.098768
0.080766
0.065094
0.051641
0.039879
0.029162
0.018834
0.008333
-0.002602
-0.013787
-0.024744
-0.035055
-0.044652
-0.053922
-0.063534
-0.073961
-0.08504
-0.095894
-0.105245
-0.11195
-0.115475
-0.116096
-0.114705
-0.112293
-0.109692
-0.107629
-0.10667
-0.106887
-0.107833
-0.109068
-0.110579
-0.112639
-0.115401
-0.11869
-0.121967
-0.124337
-0.124825
-0.123042
-0.119569
-0.115523
-0.11182
-0.108945
-0.107183
-0.106728
-0.107609
-0.109663
-0.112611
-0.116045
-0.119324
-0.121591
-0.121991
-0.119976
-0.115579
-0.109572
-0.10332
-0.098358
-0.095934
-0.096773
-0.100951
-0.107875
-0.116393
-0.125012
-0.132234
-0.13686
-0.138159
-0.135902
-0.130329
-0.121999
-0.11157
-0.099779
-0.087679
-0.076753
-0.068554
-0.064176
-0.063999
-0.067796
-0.07479
-0.08337
-0.091044
-0.095152
-0.09388
-0.086891
-0.075508
-0.062534
-0.05151
-0.045334
-0.045122
-0.050032
-0.057916
-0.066133
-0.072228
-0.074599
-0.073152
-0.069324
-0.065263
-0.062847
-0.063095
-0.065882
-0.070001
-0.073746
-0.075881
-0.076182
-0.075125
-0.073356
-0.071562
-0.070478
-0.070658
-0.072144
-0.074462
-0.076965
-0.079054
-0.080307
-0.080741
-0.080971
-0.081945
-0.084415
-0.088655
-0.094626
-0.102034
-0.110171
-0.117963
-0.124317
-0.128484
-0.130133
-0.129352
-0.126758
-0.123449
-0.120557
-0.11874
-0.118126
-0.118601
-0.119999
-0.122086
-0.124584
-0.127164
-0.129308
-0.130239
-0.129138
-0.125553
-0.119523
-0.111447
-0.102249
-0.093126
-0.085519
-0.080698
-0.079331
-0.081345
-0.086044
-0.092358
-0.099085
-0.105114
-0.109589
-0.111967
-0.112102
-0.110406
-0.107902
-0.105935
-0.105717
-0.108025
-0.113054
-0.120331
-0.12873
-0.136745
-0.142987
-0.14673
-0.148175
-0.148336
-0.148669
-0.150575
-0.154858
-0.161338
-0.168963
-0.176363
-0.182317
-0.185873
-0.186482
-0.184243
-0.179919
-0.174502
-0.168775
-0.163252
-0.158324
-0.154216
-0.150851
-0.148012
-0.145616
-0.143767
-0.142637
-0.14234
-0.142852
-0.143884
-0.1448
-0.144769
-0.143035
-0.139148
-0.133155
-0.12568
-0.11786
-0.111129
-0.106847
-0.10586
-0.108203
-0.113074
-0.119136
-0.125052
-0.129858
-0.133088
-0.134697
-0.134942
-0.133952
-0.132548
-0.131055
-0.129522
-0.127799
-0.125612
-0.122706
-0.118958
-0.114398
-0.109195
-0.103675
-0.098356
-0.093962
-0.091404
-0.09152
-0.094625
-0.100208
-0.107011
-0.113424
-0.117986
-0.119794
-0.118617
-0.114785
-0.108993
-0.102133
-0.09511
-0.088524
-0.082327
-0.075917
-0.068708
-0.060615
-0.052104
-0.044019
-0.037352
-0.032835
-0.030569
-0.030021
-0.030318
-0.030577
-0.030098
-0.028566
-0.026324
-0.024446
-0.024336
-0.027096
-0.033111
-0.041941
-0.052352
-0.062485
-0.070365
-0.074589
-0.074715
-0.071201
-0.065144
-0.057977
-0.051153
-0.045761
-0.042355
-0.041016
-0.041481
-0.043212
-0.045495
-0.047685
-0.0495
-0.05113
-0.053159
-0.056391
-0.061565
-0.068964
-0.078156
-0.088028
-0.097053
-0.103554
-0.105975
-0.103256
-0.095292
-0.083093
-0.068497
-0.053767
-0.041215
-0.032673
-0.02903
-0.030212
-0.035406
-0.043126
-0.051206
-0.05708
-0.058211
-0.052375
-0.037769
-0.013156
0.022044
0.067788
0.123468
0.187769
0.258522
0.332937
0.407903
0.48001
0.545651
0.601398
0.677131
0.709047
0.72185
0.714421
0.68544
0.63467
0.537794
0.465239
0.385768
0.304581
0.226781
0.15688
0.06634
0.020301
-0.008154
0.009409
0.005839
0.01101
0.021542
0.034192
0.046165
0.055256
0.059933
0.059465
0.053983
0.044405
0.032274
0.019392
0.007432
-0.002243
-0.00863
-0.011129
-0.009681
-0.004787
0.002724
0.011988
0.022215
0.032619
0.042374
0.050582
0.056235
0.058338
0.056348
0.050537
0.041882
0.031685
0.021304
0.011863
0.003974
-0.002308
-0.007218
-0.010928
-0.013424
-0.014639
-0.014649
-0.013725
-0.012305
-0.010935
-0.010135
-0.010149
-0.010829
-0.011724
-0.012212
-0.011621
-0.009413
-0.00547
-0.00024
0.005472
0.010901
0.015604
0.019525
0.022883
0.02607
0.029541
0.033727
0.039046
0.045874
0.054373
0.064295
0.074974
0.085576
0.095334
0.103683
0.110398
0.115778
0.120755
0.12669
0.134793
0.145612
0.158889
0.173634
0.188398
0.20179
0.213021
0.222076
0.229579
0.236567
0.24418
0.253261
0.263976
0.27575
0.287676
0.29907
0.309691
0.319635
0.329088
0.338165
0.346887
0.355314
0.363669
0.372301
0.381517
0.391318
0.401146
0.409933
0.416495
0.419913
0.419832
0.416675
0.411577
0.405924
0.400658
0.39574
0.390176
0.382527
0.371438
0.356075
0.336521
0.313797
0.289294
0.264111
0.238843
0.213696
0.188663
0.163717
0.139032
0.115146
0.092775
0.072445
0.054397
0.03873
0.025548
0.014914
0.006765
0.000934
-0.002954
-0.005729
-0.008721
-0.013503
-0.021333
-0.032663
-0.047111
-0.063666
-0.080826
-0.096702
-0.109182
-0.116245
-0.116404
-0.109142
-0.095222
-0.076586
-0.055835
-0.035558
-0.017864
-0.004166
0.004904
0.009533
0.010578
0.009162
0.006131
0.00163
-0.004826
-0.013747
-0.024999
-0.037598
-0.049906
-0.059924
-0.06574
-0.066258
-0.061774
-0.053933
-0.045226
-0.038462
-0.036211
-0.040062
-0.050062
-0.06484
-0.082185
-0.099528
-0.11433
-0.124772
-0.130364
-0.13184
-0.130456
-0.127488
-0.12413
-0.121284
-0.119142
-0.117074
-0.113958
-0.108623
-0.100253
-0.088882
-0.075752
-0.063092
-0.053294
-0.048058
-0.048023
-0.052723
-0.060575
-0.069136
-0.07594
-0.079502
-0.079694
-0.077402
-0.074022
-0.071063
-0.069762
-0.070776
-0.074196
-0.079825
-0.087325
-0.096133
-0.105466
-0.114514
-0.122528
-0.128655
-0.131918
-0.131499
-0.127053
-0.118772
-0.107298
-0.093595
-0.078764
-0.063906
-0.050141
-0.038642
-0.030387
-0.025816
-0.024644
-0.025884
-0.027959
-0.028979
-0.027279
-0.021971
-0.013195
-0.002028
0.009844
0.020618
0.028941
0.034242
0.036694
0.036939
0.035744
0.033638
0.030605
0.026116
0.01949
0.010351
-0.001099
-0.014179
-0.027963
-0.041495
-0.053959
-0.064898
-0.074454
-0.083361
-0.092579
-0.102776
-0.114033
-0.125859
-0.13733
-0.147368
-0.155154
-0.160366
-0.163084
-0.163632
-0.162592
-0.160801
-0.159136
-0.158227
-0.158408
-0.159812
-0.162362
-0.165606
-0.168661
-0.170301
-0.169133
-0.163916
-0.154032
-0.139753
-0.122093
-0.102428
-0.082217
-0.062786
-0.045087
-0.029594
-0.01647
-0.005827
0.002209
0.007678
0.010854
0.012103
0.011876
0.010819
0.009669
0.00904
0.009245
0.010278
0.011918
0.013814
0.015683
0.017496
0.019363
0.021267
0.023019
0.024478
0.025631
0.026336
0.026163
0.024547
0.020941
0.014905
0.006312
-0.004397
-0.016129
-0.027378
-0.036531
-0.042105
-0.043108
-0.039556
-0.032663
-0.024373
-0.016555
-0.010574
-0.007225
-0.006693
-0.008539
-0.011953
-0.016196
-0.020824
-0.025598
-0.030394
-0.035238
-0.040149
-0.044868
-0.048898
-0.05196
-0.054244
-0.056085
-0.057475
-0.057949
-0.056829
-0.053506
-0.047679
-0.039507
-0.029566
-0.018582
-0.007154
0.004352
0.015818
0.027419
0.039565
0.052508
0.065949
0.078935
0.090131
0.098268
0.102506
0.102677
0.099309
0.093424
0.086319
0.079396
0.073933
0.07078
0.070142
0.071614
0.074449
0.077808
0.08081
0.082583
0.082442
0.080088
0.075692
0.069834
0.06333
0.056929
0.05104
0.0457
0.040751
0.035985
0.031215
0.026454
0.022102
0.018864
0.017363
0.017786
0.01979
0.022488
0.024545
0.02457
0.021601
0.015374
0.006398
-0.004042
-0.014092
-0.02187
-0.025966
-0.025483
-0.019876
-0.0091
0.006094
0.02415
0.042947
0.060096
0.073412
0.081575
0.084549
0.083388
0.079689
0.075113
0.070999
0.067993
0.065958
0.064278
0.062384
0.060105
0.057697
0.055687
0.054571
0.054434
0.054671
0.054066
0.051273
0.045409
0.036466
0.025419
0.01418
0.005439
0.002202
0.007197
0.022511
0.049579
0.089155
0.141095
0.204189
0.276263
0.354242
0.43402
0.510438
0.609293
0.676821
0.753572
0.766198
0.715623
0.673194
0.581374
0.514432
0.437047
0.353922
0.269732
0.188947
0.115428
0.021397
-0.031626
-0.038099
-0.064914
-0.081279
-0.089208
-0.090818
-0.088239
-0.083524
-0.078293
-0.073485
-0.069491
-0.066433
-0.064204
-0.062327
-0.060073
-0.056814
-0.052287
-0.046635
-0.040358
-0.034168
-0.028794
-0.024787
-0.022435
-0.021895
-0.023294
-0.02665
-0.031636
-0.037423
-0.042847
-0.046699
-0.04791
-0.045657
-0.039642
-0.030358
-0.019047
-0.007275
0.003577
0.012591
0.019503
0.024806
0.029415
0.03395
0.038218
0.041194
0.041324
0.036916
0.026736
0.010694
-0.009926
-0.032819
-0.055204
-0.074294
-0.087809
-0.094519
-0.094447
-0.088567
-0.078323
-0.065293
-0.05093
-0.036339
-0.022309
-0.009546
0.001236
0.009578
0.015568
0.01986
0.023438
0.02732
0.032256
0.038565
0.046138
0.054493
0.062853
0.070352
0.076447
0.081286
0.085751
0.091152
0.098741
0.109295
0.122805
0.138383
0.154583
0.169912
0.183217
0.193901
0.202003
0.2081
0.213028
0.21759
0.222362
0.22767
0.233567
0.239964
0.246861
0.254379
0.262653
0.2717
0.281293
0.290862
0.299607
0.306885
0.312563
0.316913
0.320323
0.323158
0.325579
0.327311
0.327583
0.325375
0.319861
0.310723
0.298274
0.283478
0.267715
0.252324
0.23826
0.226014
0.215668
0.206944
0.199237
0.191737
0.183673
0.17456
0.164229
0.152656
0.139833
0.125816
0.110722
0.094648
0.077562
0.059291
0.03971
0.019055
-0.001996
-0.02248
-0.041439
-0.058258
-0.072886
-0.085819
-0.097879
-0.109797
-0.121859
-0.133811
-0.144877
-0.153929
-0.159905
-0.162357
-0.161746
-0.159183
-0.156003
-0.153346
-0.15182
-0.15136
-0.151339
-0.150914
-0.149394
-0.146506
-0.142508
-0.138102
-0.134149
-0.131373
-0.130247
-0.130918
-0.133044
-0.13578
-0.138089
-0.139153
-0.138562
-0.136347
-0.132977
-0.129243
-0.126022
-0.124086
-0.12395
-0.125707
-0.12885
-0.132326
-0.134944
-0.135845
-0.134714
-0.131765
-0.127628
-0.123196
-0.119481
-0.117472
-0.117843
-0.120568
-0.124815
-0.129366
-0.133126
-0.135346
-0.135721
-0.134497
-0.132323
-0.129885
-0.127695
-0.126106
-0.125337
-0.125354
-0.125903
-0.126876
-0.128491
-0.130888
-0.133583
-0.135549
-0.135708
-0.133276
-0.127933
-0.120023
-0.11067
-0.101444
-0.09374
-0.088351
-0.085397
-0.084434
-0.084627
-0.085167
-0.08587
-0.087333
-0.090459
-0.095771
-0.102945
-0.110873
-0.118198
-0.123897
-0.127601
-0.129647
-0.130967
-0.132813
-0.136277
-0.141866
-0.149391
-0.158178
-0.167364
-0.176037
-0.183305
-0.188458
-0.191035
-0.190732
-0.187428
-0.181429
-0.173677
-0.165645
-0.158926
-0.154831
-0.154202
-0.157331
-0.163795
-0.172445
-0.181799
-0.190584
-0.197931
-0.203285
-0.206376
-0.207276
-0.206367
-0.204211
-0.201511
-0.199104
-0.197811
-0.198043
-0.199617
-0.202065
-0.205003
-0.208155
-0.21119
-0.21368
-0.215104
-0.214769
-0.211871
-0.205794
-0.196478
-0.184584
-0.171321
-0.158101
-0.146164
-0.136373
-0.129164
-0.124492
-0.121777
-0.120056
-0.118361
-0.116082
-0.113121
-0.109872
-0.107027
-0.105154
-0.104304
-0.104067
-0.103915
-0.103363
-0.101919
-0.099139
-0.094784
-0.088939
-0.082095
-0.075136
-0.069075
-0.064701
-0.06248
-0.062704
-0.065645
-0.071653
-0.081183
-0.094646
-0.112068
-0.132826
-0.155709
-0.179155
-0.201495
-0.221245
-0.237415
-0.249608
-0.257915
-0.26279
-0.264902
-0.264903
-0.263233
-0.260134
-0.255769
-0.250319
-0.244044
-0.237339
-0.230593
-0.223967
-0.21742
-0.21093
-0.204589
-0.198429
-0.192335
-0.186198
-0.180105
-0.174323
-0.169206
-0.165154
-0.162627
-0.1621
-0.163854
-0.167817
-0.173564
-0.180332
-0.187011
-0.192296
-0.195025
-0.194509
-0.190611
-0.183699
-0.174599
-0.164568
-0.155187
-0.148076
-0.14445
-0.144779
-0.148605
-0.154634
-0.161096
-0.166229
-0.168733
-0.16806
-0.164491
-0.159005
-0.153031
-0.148007
-0.144772
-0.143175
-0.14221
-0.140495
-0.136748
-0.13022
-0.121007
-0.110043
-0.098749
-0.088627
-0.080996
-0.076873
-0.076788
-0.080573
-0.08747
-0.096536
-0.106817
-0.117224
-0.126474
-0.133367
-0.137177
-0.137809
-0.135775
-0.132201
-0.128767
-0.127338
-0.129395
-0.135506
-0.14521
-0.157197
-0.169556
-0.18021
-0.18743
-0.190197
-0.188279
-0.182062
-0.172318
-0.159906
-0.145364
-0.128577
-0.108778
-0.084897
-0.055885
-0.020788
0.021154
0.070211
0.125902
0.186939
0.251171
0.315414
0.375441
0.42631
0.504826
0.532863
0.569378
0.540429
0.472519
0.353821
0.231007
0.138982
0.017987
-0.110048
-0.180413
-0.207914
-0.188661
-0.160326
-0.154391
-0.139918
-0.12106
-0.101129
-0.082279
-0.065814
-0.052709
-0.043776
-0.039432
-0.039536
-0.043582
-0.050864
-0.060398
-0.070871
-0.080725
-0.088226
-0.091526
-0.088997
-0.079891
-0.064698
-0.044901
-0.022535
0.000045
0.020405
0.036532
0.047355
0.052907
0.054102
0.052421
0.049564
0.047035
0.045892
0.046727
0.049697
0.054551
0.060739
0.067591
0.074448
0.080734
0.08606
0.090262
0.093283
0.095031
0.095435
0.094685
0.093364
0.092251
0.092004
0.093095
0.095869
0.100392
0.106311
0.113001
0.119811
0.126119
0.131312
0.134908
0.136776
0.137265
0.137178
0.137739
0.140483
0.146809
0.157356
0.17164
0.188248
0.205365
0.221306
0.234917
0.245788
0.254226
0.261108
0.267586
0.274559
0.282318
0.290247
0.297061
0.301871
0.304446
0.305313
0.305435
0.305763
0.306979
0.309444
0.313238
0.318235
0.324209
0.330907
0.338131
0.345861
0.354224
0.363196
0.372388
0.381107
0.388659
0.394708
0.399536
0.404075
0.409618
0.417292
0.427631
0.440402
0.454611
0.468648
0.480618
0.488806
0.492037
0.489749
0.48199
0.469336
0.452612
0.432643
0.410289
0.386578
0.362609
0.339346
0.317558
0.297806
0.280317
0.264885
0.250953
0.237782
0.224593
0.210656
0.19536
0.17837
0.159835
0.140416
0.121149
0.10333
0.088399
0.077698
0.072238
0.072597
0.078799
0.090134
0.105214
0.122314
0.139762
0.156236
0.170845
0.183067
0.192611
0.199258
0.202793
0.203012
0.199699
0.192542
0.181269
0.166036
0.147651
0.127405
0.106783
0.087144
0.069418
0.054024
0.041023
0.030227
0.021208
0.013389
0.006275
-0.000377
-0.00655
-0.012045
-0.016575
-0.019955
-0.022244
-0.023725
-0.024668
-0.025144
-0.025111
-0.024614
-0.02379
-0.022683
-0.021257
-0.019538
-0.017651
-0.015766
-0.014124
-0.01306
-0.012851
-0.013645
-0.015634
-0.019183
-0.024555
-0.031495
-0.039147
-0.046378
-0.052147
-0.055798
-0.057377
-0.057725
-0.058122
-0.059853
-0.064032
-0.071456
-0.082208
-0.095343
-0.109174
-0.12191
-0.132102
-0.138715
-0.141121
-0.139168
-0.133273
-0.124409
-0.113965
-0.103558
-0.094787
-0.08882
-0.085946
-0.085399
-0.085653
-0.084999
-0.081944
-0.075429
-0.065098
-0.051479
-0.035828
-0.019655
-0.004272
0.00933
0.020444
0.028689
0.033979
0.036261
0.035262
0.030638
0.022484
0.011552
-0.00107
-0.014296
-0.027095
-0.038525
-0.048053
-0.055831
-0.062454
-0.068521
-0.074535
-0.080939
-0.087861
-0.094942
-0.101552
-0.107165
-0.111375
-0.113692
-0.113619
-0.110833
-0.105092
-0.096179
-0.08421
-0.070017
-0.055165
-0.041587
-0.031158
-0.025282
-0.024516
-0.028398
-0.035574
-0.044118
-0.051989
-0.057428
-0.05931
-0.057437
-0.052548
-0.045986
-0.039248
-0.033723
-0.030583
-0.030585
-0.033873
-0.040011
-0.048163
-0.057262
-0.066153
-0.073825
-0.07968
-0.083559
-0.085571
-0.086018
-0.085317
-0.083755
-0.08128
-0.077646
-0.072682
-0.066434
-0.05928
-0.052039
-0.045775
-0.041414
-0.039564
-0.040509
-0.044078
-0.049482
-0.055538
-0.061095
-0.065324
-0.067873
-0.069041
-0.069805
-0.071319
-0.074201
-0.078403
-0.083574
-0.089224
-0.094637
-0.099006
-0.101812
-0.102956
-0.102586
-0.101034
-0.098839
-0.096595
-0.094752
-0.093641
-0.093576
-0.094854
-0.097599
-0.101654
-0.106608
-0.111962
-0.117321
-0.122567
-0.127947
-0.133992
-0.141249
-0.149917
-0.159691
-0.169883
-0.179666
-0.188265
-0.19508
-0.199836
-0.202732
-0.204383
-0.205585
-0.207105
-0.209475
-0.212782
-0.21673
-0.220984
-0.225389
-0.229731
-0.233445
-0.23579
-0.236225
-0.234598
-0.231198
-0.226742
-0.222275
-0.218826
-0.217057
-0.217025
-0.21797
-0.218328
-0.216171
-0.209985
-0.199235
-0.184312
-0.166151
-0.145842
-0.124153
-0.101128
-0.076078
-0.047853
-0.015105
0.023496
0.068937
0.121472
0.180477
0.244543
0.311511
0.378513
0.442157
0.498873
0.576368
0.612382
0.630967
0.632336
0.617114
0.586253
0.511565
0.454428
0.387441
0.314162
0.238745
0.165779
0.099407
0.042817
-0.002201
-0.035306
-0.057409
-0.07025
-0.075785
-0.075579
-0.070505
-0.060935
-0.047206
-0.030042
-0.010733
0.008873
0.026459
0.039546
0.046218
0.045774
0.038849
0.027013
0.012133
-0.004141
-0.020684
-0.037018
-0.053043
-0.068539
-0.082895
-0.095208
-0.104543
-0.110219
-0.112181
-0.111328
-0.109378
-0.108241
-0.109394
-0.113551
-0.120534
-0.129322
-0.138519
-0.147091
-0.154755
-0.161736
-0.168359
-0.174878
-0.181341
-0.187335
-0.191977
-0.194319
-0.193709
-0.189756
-0.182285
-0.171544
-0.158238
-0.143124
-0.1267
-0.109432
-0.092094
-0.075693
-0.061137
-0.048986
-0.039261
-0.03118
-0.023077
-0.012974
0.000522
0.017683
0.037621
0.058504
0.07822
0.09462
0.106612
0.114102
0.117769
0.118744
0.118278
0.117441
0.116988
0.117406
0.119073
0.122421
0.127847
0.135531
0.145311
0.156629
0.16864
0.18052
0.19186
0.202856
0.21411
0.22613
0.238891
0.251691
0.263316
0.27236
0.277665
0.278818
0.276286
0.271158
0.264848
0.258859
0.25443
0.25216
0.251927
0.253117
0.254859
0.2562
0.256317
0.254715
0.25128
0.246113
0.239363
0.231267
0.222201
0.212497
0.202203
0.191046
0.178537
0.163996
0.146603
0.125779
0.101696
0.075486
0.049034
0.024496
0.003814
-0.011776
-0.022202
-0.028629
-0.032993
-0.037397
-0.043585
-0.052556
-0.064329
-0.078033
-0.092349
-0.106032
-0.11817
-0.128239
-0.1359
-0.140695
-0.142126
-0.140043
-0.134912
-0.127734
-0.119769
-0.112338
-0.106661
-0.103561
-0.10325
-0.105385
-0.109286
-0.114169
-0.119359
-0.12445
-0.129332
-0.134082
-0.138936
-0.14429
-0.15048
-0.157505
-0.164939
-0.171897
-0.177052
-0.178962
-0.176703
-0.170326
-0.160796
-0.149704
-0.139013
-0.130662
-0.125897
-0.124796
-0.126479
-0.129808
-0.133967
-0.1386
-0.14377
-0.149878
-0.157487
-0.166982
-0.178186
-0.190206
-0.201665
-0.210997
-0.216638
-0.217322
-0.212538
-0.20285
-0.189816
-0.175622
-0.162683
-0.153236
-0.148831
-0.149915
-0.155768
-0.16486
-0.175325
-0.185453
-0.194135
-0.201022
-0.206342
-0.210411
-0.21303
-0.21323
-0.209658
-0.201323
-0.188137
-0.171011
-0.151738
-0.132735
-0.116473
-0.10478
-0.098427
-0.097079
-0.099555
-0.104281
-0.10985
-0.115494
-0.12112
-0.126826
-0.132247
-0.136158
-0.136674
-0.131883
-0.120459
-0.102082
-0.077729
-0.049719
-0.02129
0.004196
0.023948
0.036132
0.040148
0.036816
0.028107
0.016466
0.004234
-0.006591
-0.014529
-0.018846
-0.019578
-0.017237
-0.01259
-0.006691
-0.000696
0.004661
0.009386
0.01394
0.018656
0.023456
0.027973
0.031619
0.033593
0.0331
0.029732
0.023605
0.01522
0.005312
-0.005199
-0.015427
-0.024912
-0.033773
-0.042406
-0.050955
-0.059044
-0.065996
-0.071145
-0.07398
-0.074174
-0.071647
-0.066708
-0.06007
-0.052635
-0.045245
-0.038554
-0.032902
-0.02811
-0.023493
-0.018295
-0.012237
-0.005426
0.001968
0.009532
0.016608
0.022416
0.026398
0.028426
0.028747
0.027943
0.026908
0.026584
0.02763
0.030347
0.034834
0.041011
0.048425
0.056132
0.062869
0.067331
0.068417
0.065448
0.058383
0.048022
0.035952
0.024204
0.014752
0.008955
0.007215
0.009019
0.013249
0.018619
0.023989
0.028519
0.031679
0.03321
0.033032
0.031098
0.027236
0.021259
0.013331
0.004178
-0.005007
-0.012874
-0.018267
-0.020523
-0.019652
-0.016312
-0.011594
-0.006791
-0.003186
-0.001704
-0.002668
-0.005931
-0.011247
-0.018484
-0.027509
-0.038012
-0.049364
-0.060498
-0.069986
-0.076395
-0.078617
-0.076084
-0.068968
-0.058346
-0.046072
-0.034341
-0.025147
-0.019801
-0.018499
-0.020218
-0.02317
-0.025506
-0.025792
-0.023189
-0.017562
-0.009557
-0.000378
0.008667
0.01646
0.022142
0.025198
0.025609
0.023689
0.019677
0.013653
0.005901
-0.002866
-0.011789
-0.020243
-0.027923
-0.034787
-0.04101
-0.046849
-0.052247
-0.056538
-0.058565
-0.057
-0.050467
-0.037599
-0.01737
0.010523
0.045772
0.08798
0.136945
0.19241
0.253629
0.319089
0.386399
0.452315
0.512949
0.595827
0.640271
0.664588
0.667915
0.649211
0.636664
0.570218
0.427425
0.344701
0.259099
0.176179
0.070128
0.036456
-0.014341
-0.051113
-0.074721
-0.086736
-0.089029
-0.083796
-0.073607
-0.061112
-0.048687
-0.038218
-0.030918
-0.0272
-0.026862
-0.029561
-0.0351
-0.043401
-0.054435
-0.068044
-0.083403
-0.098671
-0.111346
-0.119026
-0.119972
-0.113467
-0.100119
-0.081973
-0.062049
-0.043516
-0.029009
-0.020235
-0.01757
-0.019884
-0.025035
-0.030901
-0.036063
-0.039862
-0.042226
-0.043476
-0.044012
-0.044007
-0.043205
-0.041003
-0.036822
-0.030521
-0.022643
-0.014295
-0.00673
-0.000929
0.002662
0.004292
0.004894
0.005742
0.007846
0.011521
0.016352
0.021379
0.025428
0.02761
0.027795
0.0266
0.024868
0.023202
0.02196
0.021273
0.020833
0.019924
0.017936
0.014838
0.011233
0.008186
0.007074
0.009253
0.01544
0.02532
0.037739
0.051217
0.064346
0.076008
0.085598
0.093139
0.099097
0.104108
0.108944
0.114518
0.121697
0.131077
0.142874
0.156845
0.172302
0.188146
0.203037
0.215619
0.224841
0.230315
0.232553
0.23295
0.233302
0.235086
0.239022
0.24503
0.252412
0.260185
0.267497
0.273944
0.279532
0.284356
0.288409
0.291695
0.294295
0.296143
0.296874
0.296095
0.293651
0.289577
0.283963
0.276985
0.268905
0.25994
0.250285
0.24038
0.231012
0.222899
0.216144
0.21015
0.20397
0.196651
0.187454
0.176078
0.162808
0.148418
0.133935
0.120376
0.108433
0.098183
0.089049
0.080076
0.070481
0.06011
0.049513
0.039633
0.031417
0.025505
0.022024
0.020457
0.019653
0.018096
0.014327
0.007289
-0.003443
-0.017587
-0.03421
-0.051998
-0.069548
-0.085446
-0.098312
-0.107092
-0.111325
-0.111132
-0.107059
-0.100032
-0.091263
-0.081934
-0.072885
-0.06467
-0.057801
-0.052786
-0.050016
-0.049768
-0.052259
-0.057459
-0.064901
-0.073895
-0.083839
-0.094125
-0.103862
-0.11194
-0.117375
-0.119538
-0.118192
-0.113542
-0.106321
-0.097676
-0.088857
-0.080952
-0.074754
-0.070682
-0.0687
-0.068351
-0.069001
-0.070112
-0.071258
-0.071904
-0.071311
-0.068751
-0.063807
-0.056437
-0.046913
-0.035923
-0.024608
-0.014236
-0.00571
0.00066
0.004986
0.007539
0.008527
0.007888
0.005334
0.000727
-0.005633
-0.013022
-0.020381
-0.026425
-0.029767
-0.029226
-0.024223
-0.015033
-0.002854
0.010389
0.022567
0.031892
0.037211
0.038024
0.034449
0.027259
0.017745
0.007446
-0.002124
-0.009853
-0.015359
-0.018997
-0.021565
-0.02402
-0.027289
-0.032041
-0.038414
-0.045995
-0.054092
-0.061995
-0.069111
-0.075
-0.079267
-0.081466
-0.081171
-0.078195
-0.072891
-0.066319
-0.060128
-0.056066
-0.055309
-0.058035
-0.063491
-0.070279
-0.076676
-0.081072
-0.08256
-0.08128
-0.078179
-0.07445
-0.071157
-0.06895
-0.067727
-0.066667
-0.064812
-0.061618
-0.056989
-0.051058
-0.044155
-0.036905
-0.030052
-0.024216
-0.019882
-0.017543
-0.017622
-0.020212
-0.024962
-0.031203
-0.038016
-0.044312
-0.049091
-0.051756
-0.052175
-0.050667
-0.048079
-0.045808
-0.045659
-0.04894
-0.056133
-0.066807
-0.079682
-0.092941
-0.104631
-0.113122
-0.117417
-0.117188
-0.11281
-0.105401
-0.096626
-0.08825
-0.081648
-0.077569
-0.076222
-0.077455
-0.080896
-0.086093
-0.092609
-0.100064
-0.107984
-0.115447
-0.120907
-0.122505
-0.118686
-0.108669
-0.092697
-0.072216
-0.049809
-0.028598
-0.01148
-0.000622
0.002823
-0.001125
-0.011308
-0.025752
-0.042163
-0.05827
-0.071954
-0.081418
-0.085491
-0.083948
-0.07761
-0.068238
-0.058114
-0.049451
-0.04387
-0.042147
-0.044175
-0.049192
-0.056142
-0.064004
-0.072001
-0.079633
-0.086364
-0.091247
-0.092936
-0.090136
-0.082143
-0.069069
-0.051763
-0.031698
-0.010809
0.00887
0.025592
0.038031
0.045282
0.047086
0.044084
0.037664
0.029505
0.021241
0.014269
0.009537
0.00727
0.006894
0.007329
0.007334
0.005791
0.002022
-0.003975
-0.011645
-0.020251
-0.029194
-0.038139
-0.047045
-0.056084
-0.065386
-0.074853
-0.084241
-0.093231
-0.101302
-0.107571
-0.110937
-0.110548
-0.106246
-0.098715
-0.089432
-0.080519
-0.0743
-0.072518
-0.075646
-0.082691
-0.091566
-0.099818
-0.10546
-0.107522
-0.10618
-0.102497
-0.097994
-0.094181
-0.092163
-0.092367
-0.094462
-0.09747
-0.10012
-0.101285
-0.100272
-0.09679
-0.090567
-0.080982
-0.066953
-0.046977
-0.019258
0.017923
0.06562
0.123593
0.190059
0.261791
0.334293
0.402185
0.49504
0.543706
0.571237
0.576752
0.560634
0.523008
0.464027
0.361827
0.286251
0.20856
0.134935
-0.004857
-0.054833
-0.02311
-0.052068
-0.071532
-0.083816
-0.090994
-0.094471
-0.094871
-0.092499
-0.088074
-0.083067
-0.079331
-0.078395
-0.080942
-0.086523
-0.093581
-0.099935
-0.10352
-0.103006
-0.097985
-0.088851
-0.076678
-0.06302
-0.049464
-0.037245
-0.027124
-0.019495
-0.014499
-0.012055
-0.011874
-0.013585
-0.016795
-0.021007
-0.025468
-0.029211
-0.031363
-0.03134
-0.028932
-0.024334
-0.0181
-0.011047
-0.004135
0.001721
0.00586
0.008016
0.008309
0.007161
0.005151
0.002849
0.000644
-0.00135
-0.003283
-0.005348
-0.007446
-0.009063
-0.009402
-0.007607
-0.003026
0.0045
0.014462
0.025703
0.036665
0.045726
0.051494
0.053208
0.051159
0.046737
0.041884
0.038383
0.037491
0.039947
0.045998
0.055347
0.067127
0.080059
0.092798
0.104254
0.113747
0.121105
0.126705
0.131307
0.135792
0.141001
0.147636
0.156024
0.165942
0.176788
0.18804
0.199422
0.210706
0.221586
0.231887
0.241648
0.250819
0.259089
0.266118
0.271862
0.276554
0.280443
0.283642
0.286151
0.28789
0.28875
0.288705
0.28786
0.286316
0.283955
0.280344
0.274904
0.267137
0.256742
0.243694
0.228303
0.211178
0.193145
0.175122
0.157894
0.141893
0.127199
0.113751
0.10149
0.090327
0.080135
0.070735
0.061784
0.052802
0.043411
0.033575
0.023585
0.013813
0.00456
-0.003955
-0.01173
-0.01911
-0.026663
-0.034911
-0.044081
-0.053955
-0.06382
-0.072627
-0.079461
-0.083872
-0.085846
-0.085606
-0.083463
-0.079776
-0.07504
-0.069825
-0.06461
-0.05973
-0.055564
-0.052754
-0.052201
-0.054717
-0.060542
-0.068972
-0.078333
-0.086488
-0.09157
-0.092489
-0.089123
-0.082313
-0.073694
-0.065237
-0.058585
-0.054636
-0.053533
-0.054739
-0.057225
-0.059869
-0.0618
-0.062474
-0.061548
-0.058781
-0.054087
-0.047622
-0.039854
-0.031618
-0.024023
-0.018159
-0.014762
-0.013978
-0.01534
-0.01797
-0.020983
-0.023929
-0.026842
-0.029936
-0.03337
-0.03721
-0.041314
-0.045203
-0.048138
-0.049423
-0.048702
-0.046118
-0.042322
-0.038279
-0.0349
-0.032705
-0.031765
-0.031925
-0.032988
-0.034746
-0.037031
-0.039685
-0.042499
-0.045159
-0.047277
-0.048447
-0.048287
-0.04653
-0.043324
-0.039466
-0.036253
-0.03499
-0.036456
-0.040694
-0.047137
-0.054885
-0.063049
-0.071056
-0.078701
-0.085991
-0.092938
-0.099449
-0.105261
-0.10993
-0.112954
-0.11406
-0.11343
-0.111685
-0.109732
-0.108585
-0.10905
-0.111398
-0.115346
-0.120311
-0.125686
-0.130948
-0.135733
-0.139889
-0.14335
-0.14597
-0.147541
-0.147918
-0.147115
-0.145192
-0.142059
-0.137513
-0.131449
-0.123941
-0.115254
-0.105921
-0.096812
-0.088993
-0.083439
-0.080863
-0.081581
-0.085354
-0.091355
-0.098429
-0.10559
-0.112379
-0.118672
-0.124323
-0.12926
-0.13366
-0.137835
-0.142021
-0.146444
-0.151502
-0.157702
-0.165437
-0.17494
-0.186268
-0.19903
-0.212115
-0.223882
-0.232827
-0.238107
-0.239642
-0.238038
-0.234336
-0.229687
-0.225123
-0.221387
-0.218753
-0.216983
-0.215467
-0.213486
-0.21038
-0.20561
-0.1989
-0.190376
-0.180484
-0.169837
-0.159219
-0.149542
-0.141473
-0.135037
-0.129662
-0.12449
-0.118649
-0.111534
-0.103121
-0.094123
-0.085834
-0.079692
-0.076798
-0.077634
-0.081937
-0.088613
-0.095894
-0.101878
-0.105118
-0.104874
-0.101143
-0.09462
-0.086506
-0.078172
-0.070854
-0.06548
-0.062671
-0.062721
-0.065539
-0.070812
-0.078235
-0.087404
-0.097481
-0.107122
-0.114814
-0.119239
-0.119511
-0.115389
-0.107467
-0.096998
-0.085416
-0.073901
-0.063254
-0.053954
-0.046132
-0.039556
-0.033898
-0.029109
-0.025477
-0.023368
-0.022982
-0.024345
-0.027364
-0.031749
-0.036988
-0.042529
-0.048011
-0.053324
-0.058558
-0.064001
-0.070172
-0.077621
-0.086521
-0.096391
-0.106184
-0.114618
-0.120553
-0.12333
-0.122972
-0.120222
-0.116447
-0.113385
-0.11264
-0.115083
-0.120515
-0.127816
-0.135392
-0.141663
-0.145452
-0.146209
-0.14403
-0.139459
-0.133302
-0.12663
-0.120708
-0.116642
-0.11503
-0.115987
-0.11933
-0.124688
-0.131458
-0.138745
-0.145436
-0.150489
-0.153177
-0.153108
-0.150118
-0.144123
-0.135064
-0.122953
-0.107898
-0.090002
-0.069154
-0.044803
-0.015867
0.019047
0.061169
0.11104
0.168111
0.230502
0.294867
0.356497
0.440974
0.492174
0.520954
0.55523
0.498165
0.447981
0.376267
0.270173
0.188657
0.107806
-0.000314
-0.107102
-0.156976
-0.136686
-0.11466
-0.117991
-0.113757
-0.10563
-0.096425
-0.087761
-0.080138
-0.073319
-0.066817
-0.060248
-0.053394
-0.046024
-0.037818
-0.028651
-0.019078
-0.01038
-0.003942
-0.00061
-0.000539
-0.003251
-0.007763
-0.012935
-0.017873
-0.022168
-0.025692
-0.028287
-0.029675
-0.029496
-0.027341
-0.022968
-0.016719
-0.009789
-0.003971
-0.000958
-0.001673
-0.005884
-0.012254
-0.018805
-0.023545
-0.02496
-0.022375
-0.016116
-0.007356
0.002326
0.011417
0.018734
0.023485
0.025293
0.024163
0.020466
0.015019
0.009146
0.004571
0.003061
0.005905
0.013595
0.025866
0.0419
0.060471
0.080033
0.098892
0.115522
0.128901
0.138634
0.144802
0.14781
0.148371
0.147557
0.1467
0.147066
0.149512
0.154459
0.162076
0.172284
0.184598
0.198131
0.211819
0.224702
0.236184
0.246201
0.255151
0.263527
0.27154
0.279095
0.286187
0.293169
0.300618
0.309085
0.318971
0.33049
0.343571
0.357796
0.372405
0.386283
0.398075
0.406539
0.410888
0.410892
0.406767
0.39907
0.388733
0.376992
0.365059
0.353847
0.343943
0.335663
0.329025
0.323689
0.318996
0.31402
0.307622
0.298587
0.285813
0.268468
0.246273
0.219932
0.1913
0.16304
0.13793
0.118152
0.104769
0.097419
0.094482
0.093776
0.093324
0.091723
0.088113
0.082139
0.073956
0.064072
0.053096
0.041646
0.030438
0.02028
0.011897
0.005735
0.001886
0.000073
-0.000342
-0.000138
0.000031
-0.000362
-0.001808
-0.004714
-0.009252
-0.015255
-0.022288
-0.029729
-0.036819
-0.042767
-0.046913
-0.048894
-0.048754
-0.046832
-0.043486
-0.039201
-0.034333
-0.029049
-0.023414
-0.017569
-0.011853
-0.006674
-0.002301
0.001159
0.003709
0.005475
0.00669
0.007477
0.007589
0.006465
0.00353
-0.001478
-0.008163
-0.015303
-0.021154
-0.024107
-0.023242
-0.018526
-0.010835
-0.00189
0.006117
0.011102
0.01176
0.008047
0.001115
-0.007219
-0.015042
-0.020736
-0.023194
-0.021962
-0.01727
-0.009925
-0.001188
0.00737
0.014134
0.017788
0.017589
0.013507
0.006321
-0.002242
-0.009743
-0.013768
-0.012656
-0.006039
0.004902
0.017741
0.029639
0.038188
0.041854
0.040087
0.03336
0.022983
0.010519
-0.002773
-0.016002
-0.028402
-0.039223
-0.047812
-0.053576
-0.055928
-0.05467
-0.050473
-0.044833
-0.039552
-0.036264
-0.036142
-0.039745
-0.046961
-0.057125
-0.069293
-0.082344
-0.094821
-0.104836
-0.110424
-0.110194
-0.103825
-0.092158
-0.07699
-0.060724
-0.045925
-0.034693
-0.028052
-0.025784
-0.026778
-0.029673
-0.033524
-0.038185
-0.044131
-0.051802
-0.060952
-0.070452
-0.078618
-0.083747
-0.084599
-0.080713
-0.072582
-0.061677
-0.05016
-0.040343
-0.034027
-0.032053
-0.034317
-0.040078
-0.048216
-0.057325
-0.065754
-0.071811
-0.074156
-0.072293
-0.066859
-0.059475
-0.052209
-0.046898
-0.044689
-0.045985
-0.050534
-0.057603
-0.066261
-0.075648
-0.085082
-0.094047
-0.102204
-0.109387
-0.115411
-0.119987
-0.122976
-0.124631
-0.125529
-0.126306
-0.127458
-0.129366
-0.132329
-0.136432
-0.141472
-0.14703
-0.152555
-0.157338
-0.160542
-0.161395
-0.15943
-0.15459
-0.147327
-0.138646
-0.1299
-0.122288
-0.116338
-0.111844
-0.108203
-0.104761
-0.101018
-0.096763
-0.092113
-0.08746
-0.083389
-0.080596
-0.079668
-0.080699
-0.08308
-0.085774
-0.087794
-0.088484
-0.087672
-0.085813
-0.083945
-0.083368
-0.085312
-0.09077
-0.100306
-0.113637
-0.129298
-0.144835
-0.157457
-0.164715
-0.165002
-0.158039
-0.145157
-0.129014
-0.112823
-0.099546
-0.091308
-0.089041
-0.092379
-0.09994
-0.109981
-0.120991
-0.131935
-0.142239
-0.151576
-0.1595
-0.165246
-0.167966
-0.167132
-0.162744
-0.155396
-0.146301
-0.137092
-0.129364
-0.124299
-0.122627
-0.1247
-0.13034
-0.138654
-0.148085
-0.15668
-0.16229
-0.162723
-0.156034
-0.140802
-0.116293
-0.08248
-0.039858
0.010761
0.068347
0.131704
0.199365
0.26935
0.339021
0.40514
0.464115
0.543921
0.583307
0.603936
0.603597
0.580061
0.532791
0.463714
0.359602
0.280651
0.20133
0.1274
0.027384
-0.022477
-0.024797
-0.048892
-0.061978
-0.066548
-0.065074
-0.059869
-0.052918
-0.045649
-0.038978
-0.033576
-0.029881
-0.027851
-0.026879
-0.026042
-0.024497
-0.021765
-0.017874
-0.013427
-0.009499
-0.007276
-0.007549
-0.010417
-0.015378
-0.021625
-0.028263
-0.034489
-0.039849
-0.044364
-0.048374
-0.052255
-0.056162
-0.059935
-0.063054
-0.064613
-0.063702
-0.060037
-0.054204
-0.047358
-0.040627
-0.034664
-0.029551
-0.024847
-0.019819
-0.013818
-0.006569
0.001705
0.010347
0.018416
0.024942
0.029432
0.032377
0.034884
0.038384
0.044026
0.052364
0.063257
0.075916
0.089176
0.101876
0.112995
0.121662
0.127284
0.129817
0.129898
0.128667
0.127401
0.127177
0.128626
0.131897
0.136759
0.14268
0.14895
0.154885
0.16007
0.164458
0.168324
0.172193
0.17678
0.18279
0.190612
0.200253
0.211435
0.223612
0.235838
0.246797
0.255166
0.260092
0.261381
0.259494
0.255459
0.250645
0.246396
0.243695
0.243084
0.244712
0.248342
0.253336
0.258733
0.263455
0.266577
0.26755
0.266269
0.263007
0.258175
0.25215
0.245328
0.238233
0.231463
0.225571
0.220948
0.217763
0.215867
0.214741
0.213555
0.211322
0.207109
0.200282
0.19072
0.178903
0.165744
0.152203
0.138994
0.126502
0.114774
0.103639
0.092946
0.082721
0.073096
0.064154
0.05582
0.047881
0.040024
0.031851
0.022948
0.013013
0.002019
-0.009747
-0.021755
-0.033302
-0.043644
-0.052228
-0.058901
-0.063814
-0.067129
-0.068942
-0.069463
-0.069054
-0.06804
-0.066613
-0.064964
-0.063307
-0.061651
-0.059671
-0.056904
-0.053018
-0.047888
-0.041665
-0.034932
-0.028661
-0.023791
-0.020813
-0.019732
-0.020222
-0.02171
-0.02344
-0.024749
-0.025478
-0.026072
-0.027162
-0.029088
-0.031821
-0.035105
-0.038583
-0.041928
-0.045082
-0.048349
-0.052157
-0.0567
-0.061816
-0.067083
-0.071923
-0.075719
-0.078029
-0.078895
-0.078907
-0.078886
-0.079434
-0.080704
-0.082405
-0.083867
-0.084145
-0.082371
-0.078333
-0.072755
-0.067024
-0.062526
-0.060036
-0.059454
-0.05989
-0.060046
-0.058703
-0.055067
-0.048888
-0.040529
-0.031009
-0.021834
-0.014495
-0.009928
-0.00836
-0.009521
-0.01292
-0.018092
-0.024781
-0.032778
-0.041584
-0.050344
-0.058096
-0.063999
-0.067392
-0.067978
-0.06618
-0.063163
-0.06027
-0.05843
-0.057868
-0.05803
-0.057709
-0.055463
-0.050205
-0.041572
-0.029988
-0.016703
-0.003655
0.00713
0.01429
0.017458
0.017076
0.013966
0.009011
0.002908
-0.003941
-0.011342
-0.019124
-0.027069
-0.034918
-0.042411
-0.049252
-0.055118
-0.059846
-0.063673
-0.067197
-0.071054
-0.075687
-0.081376
-0.088285
-0.09639
-0.105368
-0.114469
-0.122503
-0.128136
-0.130345
-0.128774
-0.123812
-0.116456
-0.108095
-0.100199
-0.093935
-0.089915
-0.08813
-0.087995
-0.088487
-0.08853
-0.087475
-0.085204
-0.081825
-0.07747
-0.07236
-0.066875
-0.061592
-0.057357
-0.055262
-0.05625
-0.060511
-0.067236
-0.074996
-0.082331
-0.08811
-0.091745
-0.093398
-0.093941
-0.094552
-0.096275
-0.099782
-0.105146
-0.111582
-0.117465
-0.120832
-0.120056
-0.114271
-0.103473
-0.088512
-0.071056
-0.05339
-0.038056
-0.02737
-0.022902
-0.025038
-0.032832
-0.044262
-0.056825
-0.068149
-0.076451
-0.080795
-0.081122
-0.07809
-0.072707
-0.065968
-0.058713
-0.051643
-0.045405
-0.040631
-0.037859
-0.037456
-0.039598
-0.044369
-0.051891
-0.062314
-0.075625
-0.09146
-0.109074
-0.12738
-0.144974
-0.160262
-0.171746
-0.178272
-0.179145
-0.174308
-0.164542
-0.151304
-0.136151
-0.120272
-0.104537
-0.089853
-0.077368
-0.068232
-0.063253
-0.062689
-0.066063
-0.072121
-0.079113
-0.085306
-0.089417
-0.090825
-0.089667
-0.086893
-0.084091
-0.082962
-0.084623
-0.089182
-0.095917
-0.10372
-0.111492
-0.118417
-0.124042
-0.128124
-0.130466
-0.13089
-0.129321
-0.125707
-0.119882
-0.111615
-0.100724
-0.087066
-0.070387
-0.050246
-0.026036
0.003075
0.038198
0.080506
0.13084
0.189347
0.255155
0.326046
0.398337
0.467231
0.560472
0.650897
0.687268
0.660505
0.640624
0.594587
0.524563
0.412052
0.326358
0.237171
0.150328
0.040737
-0.029749
-0.083368
-0.120556
-0.114315
-0.12615
-0.127532
-0.121186
-0.110105
-0.097211
-0.084963
-0.075072
-0.068263
-0.064216
-0.061859
-0.059838
-0.057017
-0.052883
-0.047674
-0.042117
-0.03693
-0.032501
-0.028845
-0.025695
-0.022666
-0.019549
-0.016458
-0.013817
-0.012231
-0.012434
-0.01525
-0.021265
-0.030234
-0.040971
-0.051847
-0.061284
-0.067848
-0.070249
-0.06775
-0.060684
-0.050505
-0.03939
-0.029713
-0.023471
-0.021702
-0.024216
-0.029962
-0.037741
-0.046633
-0.055987
-0.065266
-0.073829
-0.080728
-0.084676
-0.084242
-0.078298
-0.06649
-0.049485
-0.028986
-0.00736
0.013034
0.030419
0.043806
0.053002
0.058582
0.061755
0.064047
0.066935
0.071645
0.079041
0.089468
0.102706
0.117335
0.131595
0.143925
0.153578
0.160862
0.166976
0.173454
0.18153
0.191658
0.203396
0.215697
0.227347
0.237339
0.245137
0.250878
0.255348
0.259625
0.26452
0.270265
0.27655
0.282781
0.288338
0.292704
0.295452
0.296261
0.295097
0.292373
0.288877
0.285589
0.283493
0.283323
0.285276
0.288912
0.293363
0.297615
0.30059
0.301227
0.298797
0.293228
0.285094
0.275324
0.264965
0.255034
0.246235
0.238591
0.231411
0.223654
0.214324
0.202771
0.188921
0.173421
0.157464
0.142323
0.12891
0.117553
0.107935
0.099209
0.09024
0.079951
0.067722
0.053649
0.038457
0.023125
0.008516
-0.004704
-0.015879
-0.024361
-0.029803
-0.032418
-0.032983
-0.032655
-0.032556
-0.033177
-0.03424
-0.035166
-0.03562
-0.035581
-0.035262
-0.035225
-0.036488
-0.040166
-0.046913
-0.056516
-0.067701
-0.078257
-0.085729
-0.088552
-0.086745
-0.081661
-0.075324
-0.06994
-0.067489
-0.069228
-0.075347
-0.085016
-0.096663
-0.108264
-0.117814
-0.123952
-0.126288
-0.125209
-0.121464
-0.115899
-0.109315
-0.102398
-0.095745
-0.089796
-0.084662
-0.080185
-0.076209
-0.0728
-0.070195
-0.068548
-0.067791
-0.067655
-0.067692
-0.067338
-0.066178
-0.064196
-0.061785
-0.059666
-0.05877
-0.059762
-0.062441
-0.065698
-0.068036
-0.068139
-0.065234
-0.059424
-0.051886
-0.0446
-0.039667
-0.038626
-0.042099
-0.049486
-0.058895
-0.067759
-0.074062
-0.077061
-0.077051
-0.074862
-0.071673
-0.068804
-0.067246
-0.067263
-0.068403
-0.069874
-0.070869
-0.070769
-0.069423
-0.067394
-0.065805
-0.065841
-0.068256
-0.073247
-0.080556
-0.089478
-0.098814
-0.107127
-0.113219
-0.116352
-0.116168
-0.112724
-0.106676
-0.099211
-0.091623
-0.08498
-0.080131
-0.077691
-0.077884
-0.080442
-0.084795
-0.090367
-0.09662
-0.102918
-0.108529
-0.112676
-0.114607
-0.113798
-0.110138
-0.10396
-0.095983
-0.08719
-0.078791
-0.071924
-0.067383
-0.065591
-0.06657
-0.069957
-0.07505
-0.080965
-0.086922
-0.092368
-0.096924
-0.100397
-0.102881
-0.104761
-0.106569
-0.108741
-0.111506
-0.114945
-0.119121
-0.124075
-0.129637
-0.135291
-0.140226
-0.143419
-0.143732
-0.140261
-0.132932
-0.122758
-0.111569
-0.101498
-0.09457
-0.092271
-0.094995
-0.101798
-0.110747
-0.119575
-0.126249
-0.129396
-0.12863
-0.124621
-0.118692
-0.112239
-0.1064
-0.10191
-0.099022
-0.097584
-0.097288
-0.097908
-0.099362
-0.101655
-0.104829
-0.108874
-0.113561
-0.118374
-0.122552
-0.125286
-0.125991
-0.124557
-0.121407
-0.117219
-0.112515
-0.107528
-0.102255
-0.096553
-0.090302
-0.083699
-0.077459
-0.072617
-0.070109
-0.070476
-0.073711
-0.079
-0.08461
-0.088294
-0.088186
-0.083489
-0.074559
-0.062619
-0.049458
-0.037041
-0.026966
-0.019975
-0.015903
-0.01417
-0.014241
-0.015666
-0.017983
-0.020692
-0.023205
-0.024736
-0.0244
-0.021664
-0.01674
-0.010559
-0.004491
-0.000155
0.0008
-0.002904
-0.011708
-0.025093
-0.04185
-0.060426
-0.079205
-0.096663
-0.111429
-0.122276
-0.128187
-0.128649
-0.123974
-0.115348
-0.104627
-0.093966
-0.085361
-0.080219
-0.079038
-0.081311
-0.085769
-0.090915
-0.09548
-0.098599
-0.09985
-0.099243
-0.097068
-0.093667
-0.089242
-0.083873
-0.07765
-0.070778
-0.063663
-0.057018
-0.051771
-0.048653
-0.047861
-0.049073
-0.051651
-0.05474
-0.057339
-0.058378
-0.056762
-0.051317
-0.040688
-0.023309
0.002439
0.037922
0.083917
0.140344
0.205974
0.27816
0.352872
0.425116
0.489494
0.579578
0.621673
0.671738
0.659199
0.591028
0.528663
0.422693
0.343544
0.260396
0.17935
0.075106
0.008962
-0.038681
-0.041723
-0.064579
-0.076736
-0.080709
-0.078965
-0.073494
-0.065852
-0.057386
-0.049121
-0.041568
-0.034788
-0.028636
-0.022958
-0.01774
-0.013252
-0.010079
-0.009024
-0.010882
-0.016125
-0.024617
-0.035419
-0.046812
-0.056654
-0.06296
-0.064386
-0.060455
-0.051606
-0.039003
-0.02422
-0.008865
0.005693
0.018448
0.028628
0.035606
0.039003
0.03892
0.036058
0.031729
0.027782
0.026215
0.02858
0.035508
0.04648
0.059909
0.073547
0.085165
0.09323
0.097232
0.097594
0.095366
0.09185
0.088222
0.085243
0.0832
0.082107
0.081959
0.082782
0.084568
0.087299
0.091044
0.095872
0.101609
0.107835
0.114128
0.120203
0.125791
0.13057
0.134298
0.136881
0.13828
0.138567
0.138129
0.13765
0.137722
0.138573
0.14025
0.142911
0.146846
0.15236
0.159626
0.168597
0.178948
0.19018
0.201782
0.213263
0.224213
0.234507
0.244502
0.25487
0.266142
0.278334
0.290931
0.303009
0.313389
0.320901
0.324826
0.325199
0.322715
0.318391
0.313297
0.308286
0.303717
0.29939
0.294875
0.289962
0.284777
0.27957
0.274577
0.270029
0.266108
0.26276
0.259599
0.25611
0.251861
0.246532
0.239941
0.232059
0.222888
0.212238
0.199678
0.184747
0.167317
0.147883
0.127553
0.107728
0.089608
0.073857
0.060488
0.048967
0.038446
0.028032
0.017006
0.004971
-0.008019
-0.021391
-0.034204
-0.045624
-0.055225
-0.062814
-0.068234
-0.071432
-0.072666
-0.072588
-0.072128
-0.072258
-0.073619
-0.07624
-0.079576
-0.082879
-0.085555
-0.087386
-0.088532
-0.089408
-0.09053
-0.092365
-0.095212
-0.099105
-0.103763
-0.108682
-0.113305
-0.117209
-0.120256
-0.122641
-0.124785
-0.127124
-0.129889
-0.133089
-0.136687
-0.140703
-0.145136
-0.149893
-0.15486
-0.160069
-0.165747
-0.172151
-0.179325
-0.186975
-0.194466
-0.200973
-0.205814
-0.208809
-0.210278
-0.210752
-0.210712
-0.210501
-0.210334
-0.210328
-0.210507
-0.210793
-0.211094
-0.211419
-0.21187
-0.212496
-0.213192
-0.213754
-0.21398
-0.21366
-0.212547
-0.210479
-0.2075
-0.203747
-0.199326
-0.194445
-0.189635
-0.18574
-0.183665
-0.184052
-0.187036
-0.192159
-0.198428
-0.204419
-0.208832
-0.210932
-0.210541
-0.20813
-0.204595
-0.20104
-0.198614
-0.198207
-0.200033
-0.203588
-0.20808
-0.212769
-0.216838
-0.219291
-0.219229
-0.21619
-0.210239
-0.201964
-0.192512
-0.183378
-0.175908
-0.170515
-0.166832
-0.163847
-0.160205
-0.154599
-0.146343
-0.135847
-0.124549
-0.114441
-0.107513
-0.105225
-0.108082
-0.11546
-0.12584
-0.137221
-0.147564
-0.155227
-0.159382
-0.160097
-0.157983
-0.15372
-0.147922
-0.141272
-0.134513
-0.128254
-0.122926
-0.118922
-0.116635
-0.116329
-0.118095
-0.12193
-0.127778
-0.135498
-0.144819
-0.155346
-0.166518
-0.17761
-0.187848
-0.196533
-0.203118
-0.207304
-0.209078
-0.20862
-0.206119
-0.201735
-0.195695
-0.188378
-0.180326
-0.172306
-0.165337
-0.160407
-0.157964
-0.157604
-0.158255
-0.158614
-0.157564
-0.154467
-0.149261
-0.142353
-0.134415
-0.12616
-0.118168
-0.110783
-0.104155
-0.098454
-0.094096
-0.091773
-0.092159
-0.095542
-0.101641
-0.10972
-0.118786
-0.127672
-0.135053
-0.139547
-0.140009
-0.135842
-0.127187
-0.114938
-0.100559
-0.085751
-0.072234
-0.061636
-0.055215
-0.053479
-0.055951
-0.061239
-0.067353
-0.072228
-0.074349
-0.07303
-0.068268
-0.060556
-0.050913
-0.040884
-0.032231
-0.026525
-0.024911
-0.028057
-0.03606
-0.048325
-0.063672
-0.08054
-0.097071
-0.111324
-0.121752
-0.127597
-0.128996
-0.126848
-0.122577
-0.117677
-0.11324
-0.109743
-0.107077
-0.104691
-0.101884
-0.098191
-0.09364
-0.088688
-0.083905
-0.079748
-0.076463
-0.07398
-0.0719
-0.069704
-0.067043
-0.063867
-0.060386
-0.057045
-0.054389
-0.052811
-0.052347
-0.052558
-0.052649
-0.051774
-0.049249
-0.044554
-0.037344
-0.027498
-0.015043
0.000196
0.018955
0.042519
0.072348
0.109697
0.155342
0.209275
0.270467
0.336985
0.406327
0.475621
0.541694
0.60116
0.650508
0.720071
0.749403
0.78646
0.765264
0.686616
0.615694
0.509731
0.429186
0.348039
0.272572
0.170736
0.118561
0.087389
0.104253
0.098504
0.103019
0.1139
0.127177
0.13967
0.149321
0.155078
0.156785
0.155175
0.151581
0.147357
0.143461
0.140407
0.138357
0.137226
0.136823
0.136936
0.137357
0.137797
0.137872
0.137228
0.135644
0.132986
0.129136
0.124067
0.117898
0.110845
0.103056
0.094503
0.085004
0.074417
0.062847
0.050716
0.038639
0.027292
0.017274
0.008968
0.00247
-0.002378
-0.005841
-0.00811
-0.009179
-0.00876
-0.006328
-0.001378
0.00623
0.016017
0.026991
0.038033
0.048236
0.057205
0.06522
0.073079
0.081643
0.091384
0.10218
0.113414
0.1242
0.133649
0.141133
0.146367
0.149301
0.150046
0.149023
0.147146
0.145655
0.14572
0.148272
0.154
0.163188
0.175478
0.189904
0.205324
0.22085
0.23599
0.25062
0.264926
0.279173
0.293265
0.306547
0.318115
0.327413
0.334598
0.340449
0.346061
0.352526
0.360634
0.370587
0.381884
0.393448
0.403997
0.412367
0.417744
0.419962
0.419682
0.418258
0.4173
0.418112
0.421283
0.426531
0.432822
0.438744
0.442982
0.444722
0.443884
0.440929
0.436514
0.43122
0.425296
0.418439
0.409745
0.397922
0.381733
0.360334
0.333422
0.301487
0.265979
0.229026
0.192795
0.159084
0.129262
0.10409
0.08339
0.066073
0.050601
0.035561
0.020104
0.004198
-0.011214
-0.024366
-0.03334
-0.036978
-0.035383
-0.029849
-0.022518
-0.015961
-0.012599
-0.013949
-0.020024
-0.029279
-0.03913
-0.046733
-0.049794
-0.047362
-0.040233
-0.030595
-0.02115
-0.014227
-0.011168
-0.012082
-0.015958
-0.021135
-0.025985
-0.029491
-0.031468
-0.032431
-0.033227
-0.034585
-0.036781
-0.03957
-0.042363
-0.044504
-0.045563
-0.04558
-0.045179
-0.04543
-0.047526
-0.052346
-0.060115
-0.070261
-0.081652
-0.093016
-0.103244
-0.111563
-0.117725
-0.122155
-0.12578
-0.1296
-0.134356
-0.14031
-0.147041
-0.153506
-0.15842
-0.160746
-0.159952
-0.156078
-0.149768
-0.142164
-0.134578
-0.128104
-0.123391
-0.120486
-0.1188
-0.117392
-0.115463
-0.112669
-0.109063
-0.105169
-0.101243
-0.097667
-0.094776
-0.092627
-0.090973
-0.089512
-0.088133
-0.087035
-0.086697
-0.087512
-0.089357
-0.091525
-0.093001
-0.092851
-0.090541
-0.086162
-0.080449
-0.074557
-0.06977
-0.067263
-0.067826
-0.071618
-0.078153
-0.086673
-0.096729
-0.108347
-0.121626
-0.136451
-0.152539
-0.169461
-0.186573
-0.203071
-0.218173
-0.231214
-0.241727
-0.249629
-0.255239
-0.2591
-0.261791
-0.263825
-0.265667
-0.26773
-0.270134
-0.272435
-0.273698
-0.272862
-0.269091
-0.262029
-0.25193
-0.239615
-0.22622
-0.21283
-0.200164
-0.18849
-0.177804
-0.168018
-0.159044
-0.150938
-0.144051
-0.13893
-0.136015
-0.135398
-0.136783
-0.139606
-0.143073
-0.146181
-0.147912
-0.147679
-0.145552
-0.14208
-0.137971
-0.134033
-0.131174
-0.130174
-0.131403
-0.134893
-0.140626
-0.14861
-0.158637
-0.170196
-0.182685
-0.195576
-0.208314
-0.220161
-0.230213
-0.237609
-0.241794
-0.242737
-0.240976
-0.237379
-0.232891
-0.228425
-0.224681
-0.221906
-0.219912
-0.21838
-0.217038
-0.215638
-0.214009
-0.212322
-0.21114
-0.210895
-0.211272
-0.211191
-0.209301
-0.20446
-0.196009
-0.183949
-0.168952
-0.152121
-0.134621
-0.11749
-0.101624
-0.087839
-0.07687
-0.069259
-0.065196
-0.064373
-0.065926
-0.068617
-0.071113
-0.072257
-0.071559
-0.069563
-0.067574
-0.066986
-0.068766
-0.073245
-0.079949
-0.087514
-0.093993
-0.09752
-0.09684
-0.091558
-0.0822
-0.070103
-0.057021
-0.044651
-0.034415
-0.027435
-0.024327
-0.024992
-0.028746
-0.034658
-0.041765
-0.049169
-0.056173
-0.062395
-0.067761
-0.072382
-0.076461
-0.080268
-0.084222
-0.088791
-0.094165
-0.100137
-0.106362
-0.112626
-0.118879
-0.125217
-0.132007
-0.139892
-0.149343
-0.160097
-0.170984
-0.180167
-0.185405
-0.184178
-0.173873
-0.152213
-0.117667
-0.06963
-0.008541
0.063992
0.145143
0.231073
0.31738
0.39943
0.503473
0.568745
0.615719
0.641673
0.643502
0.651067
0.569103
0.468052
0.396738
0.319645
0.242668
0.170862
0.107839
0.055661
0.015197
-0.013513
-0.031098
-0.038804
-0.038392
-0.031996
-0.021978
-0.010755
-0.000542
0.00692
0.010627
0.010471
0.007118
0.001558
-0.005448
-0.013633
-0.023091
-0.033922
-0.045913
-0.058271
-0.069594
-0.07823
-0.082803
-0.082608
-0.077761
-0.069225
-0.05867
-0.048098
-0.039305
-0.03343
-0.030802
-0.031034
-0.03325
-0.036432
-0.03984
-0.043256
-0.046872
-0.050916
-0.055294
-0.059551
-0.063051
-0.06507
-0.064851
-0.061928
-0.056556
-0.049673
-0.042326
-0.035183
-0.028431
-0.021758
-0.014294
-0.004869
0.007353
0.022426
0.039707
0.058043
0.075817
0.091253
0.103119
0.111188
0.11606
0.11883
0.12097
0.124139
0.129646
0.137973
0.148769
0.161084
0.173501
0.184368
0.192312
0.196705
0.197705
0.196067
0.193075
0.19042
0.189652
0.19163
0.196576
0.204566
0.215552
0.229
0.243847
0.258912
0.273193
0.285877
0.29637
0.30451
0.310649
0.315468
0.319812
0.324628
0.330728
0.338344
0.346923
0.355344
0.362423
0.36736
0.369883
0.370149
0.368582
0.365804
0.362563
0.35942
0.35646
0.353417
0.349951
0.345775
0.34066
0.334462
0.327174
0.318842
0.309413
0.298772
0.286923
0.27405
0.260338
0.245856
0.230728
0.215244
0.199647
0.184051
0.168693
0.154074
0.140705
0.128865
0.118661
0.11008
0.102804
0.09606
0.088921
0.080779
0.071469
0.061142
0.05031
0.039837
0.030522
0.022639
0.015866
0.009563
0.003011
-0.004371
-0.012728
-0.021634
-0.030238
-0.037579
-0.042941
-0.046087
-0.047309
-0.047345
-0.047126
-0.047441
-0.048754
-0.051173
-0.054535
-0.058564
-0.063034
-0.067782
-0.072619
-0.077287
-0.081487
-0.084859
-0.086948
-0.087311
-0.085687
-0.082148
-0.07716
-0.071633
-0.066895
-0.06438
-0.065012
-0.068767
-0.074817
-0.082002
-0.089199
-0.095486
-0.100262
-0.1033
-0.104642
-0.104394
-0.102607
-0.099264
-0.094321
-0.087725
-0.079531
-0.07012
-0.060081
-0.04981
-0.039307
-0.028442
-0.017252
-0.006086
0.004338
0.013097
0.019554
0.023796
0.026578
0.029037
0.03244
0.037895
0.045803
0.055441
0.06518
0.073234
0.078263
0.079608
0.077342
0.072081
0.064544
0.055292
0.044788
0.033493
0.021899
0.010672
0.000784
-0.006719
-0.011183
-0.01264
-0.011889
-0.01039
-0.009974
-0.012297
-0.01822
-0.027517
-0.039079
-0.051245
-0.062054
-0.069622
-0.072674
-0.070893
-0.064849
-0.055716
-0.045093
-0.034868
-0.026884
-0.022511
-0.022396
-0.026443
-0.033942
-0.043866
-0.055321
-0.067869
-0.081422
-0.095867
-0.110767
-0.125237
-0.137966
-0.147467
-0.15242
-0.152053
-0.146457
-0.136686
-0.124511
-0.111937
-0.100703
-0.091889
-0.085654
-0.081252
-0.077528
-0.073489
-0.068583
-0.062699
-0.056198
-0.049919
-0.044948
-0.042215
-0.042148
-0.04453
-0.04848
-0.05251
-0.054842
-0.053997
-0.049372
-0.041472
-0.031688
-0.021862
-0.013886
-0.009264
-0.008697
-0.011876
-0.017635
-0.024405
-0.030685
-0.035406
-0.038143
-0.039053
-0.038638
-0.037589
-0.036649
-0.036489
-0.0376
-0.040116
-0.043709
-0.047699
-0.051348
-0.054072
-0.055481
-0.055403
-0.054023
-0.051875
-0.049703
-0.048338
-0.048613
-0.051241
-0.056655
-0.064949
-0.075886
-0.088763
-0.102222
-0.114459
-0.123696
-0.128667
-0.128936
-0.125081
-0.118566
-0.11125
-0.104884
-0.100783
-0.099603
-0.101195
-0.104694
-0.108938
-0.113048
-0.116758
-0.120332
-0.124207
-0.128572
-0.133044
-0.136626
-0.138069
-0.136413
-0.131257
-0.122719
-0.111349
-0.098046
-0.08391
-0.069959
-0.056885
-0.045044
-0.034692
-0.026284
-0.02063
-0.018706
-0.021162
-0.027897
-0.038008
-0.050035
-0.062387
-0.073519
-0.082352
-0.088361
-0.091392
-0.091608
-0.089481
-0.08558
-0.080379
-0.07434
-0.068116
-0.062659
-0.059063
-0.058265
-0.060813
-0.066768
-0.075672
-0.086502
-0.09769
-0.107427
-0.114194
-0.117178
-0.116414
-0.112702
-0.10745
-0.102381
-0.099075
-0.098677
-0.101832
-0.108586
-0.118119
-0.128736
-0.138309
-0.144841
-0.146638
-0.142228
-0.130333
-0.110099
-0.081317
-0.04434
0.000164
0.051327
0.10804
0.168923
0.23224
0.295757
0.35676
0.41234
0.459664
0.496003
0.551378
0.562026
0.554366
0.526578
0.478205
0.409908
0.30605
0.22674
0.146991
0.072687
-0.028609
-0.08007
-0.110251
-0.095873
-0.103071
-0.100162
-0.0902
-0.076053
-0.060195
-0.044751
-0.031504
-0.021802
-0.016458
-0.015711
-0.019261
-0.026209
-0.034955
-0.043335
-0.049085
-0.050371
-0.046241
-0.036905
-0.023725
-0.008884
0.005145
0.016134
0.022535
0.023956
0.021402
0.016788
0.011997
0.008187
0.005681
0.004138
0.00284
0.001122
-0.001238
-0.004061
-0.007067
-0.010071
-0.013007
-0.015925
-0.019039
-0.022553
-0.026238
-0.029287
-0.030705
-0.029817
-0.026571
-0.021454
-0.015201
-0.008538
-0.001947
0.004458
0.010757
0.016878
0.022463
0.027051
0.030339
0.032257
0.033002
0.033073
0.03314
0.033781
0.035224
0.037261
0.039354
0.040898
0.041657
0.0421
0.043286
0.04636
0.052174
0.061158
0.073251
0.087895
0.10422
0.121354
0.138518
0.154997
0.170308
0.184412
0.197556
0.20988
0.221321
0.231899
0.241887
0.251603
0.26121
0.270731
0.280159
0.289426
0.298331
0.306508
0.313491
0.318736
0.321785
0.322561
0.321536
0.319579
0.317581
0.316131
0.315476
0.315587
0.316202
0.316845
0.316884
0.315614
0.312357
0.306604
0.298142
0.287026
0.273427
0.257599
0.239918
0.220823
0.200805
0.180493
0.160619
0.141775
0.124244
0.108122
0.093453
0.080203
0.067771
0.055336
0.042193
0.027607
0.010858
-0.008412
-0.029889
-0.052749
-0.075994
-0.098518
-0.119156
-0.136944
-0.151372
-0.162312
-0.1698
-0.174033
-0.175528
-0.175075
-0.173515
-0.171589
-0.16995
-0.169134
-0.16935
-0.170272
-0.171176
-0.171384
-0.170515
-0.168493
-0.165594
-0.16251
-0.160046
-0.158705
-0.158696
-0.160137
-0.162885
-0.166241
-0.169223
-0.171169
-0.171859
-0.171186
-0.169177
-0.166273
-0.163185
-0.160379
-0.157974
-0.156008
-0.154405
-0.152744
-0.150548
-0.147849
-0.145253
-0.143505
-0.143107
-0.144201
-0.146501
-0.149193
-0.151024
-0.150736
-0.147542
-0.141297
-0.132363
-0.121476
-0.109719
-0.098351
-0.088468
-0.080813
-0.075795
-0.073558
-0.073986
-0.076672
-0.081067
-0.086665
-0.092985
-0.099444
-0.105416
-0.110398
-0.113999
-0.115837
-0.115644
-0.113446
-0.109611
-0.104716
-0.099416
-0.094393
-0.09034
-0.087852
-0.087214
-0.088285
-0.090494
-0.093025
-0.095204
-0.096869
-0.098293
-0.099751
-0.101191
-0.102223
-0.10225
-0.100723
-0.097506
-0.093083
-0.088445
-0.084721
-0.082897
-0.083674
-0.087147
-0.092525
-0.098427
-0.103625
-0.107632
-0.110727
-0.113683
-0.117455
-0.122725
-0.12947
-0.136958
-0.144183
-0.150294
-0.154733
-0.157316
-0.158429
-0.15898
-0.159947
-0.16195
-0.165119
-0.169169
-0.173495
-0.177298
-0.179915
-0.181116
-0.181046
-0.180021
-0.178401
-0.176536
-0.174649
-0.172783
-0.170878
-0.168882
-0.166786
-0.164528
-0.1619
-0.158584
-0.154274
-0.148745
-0.141984
-0.134319
-0.12633
-0.118567
-0.111388
-0.105052
-0.099835
-0.095989
-0.09373
-0.093404
-0.095544
-0.100493
-0.107934
-0.116877
-0.12591
-0.133353
-0.13755
-0.137519
-0.133452
-0.126545
-0.118482
-0.111058
-0.105809
-0.103537
-0.104045
-0.106338
-0.109077
-0.111095
-0.111915
-0.11204
-0.112635
-0.114788
-0.119022
-0.12516
-0.132311
-0.139004
-0.143676
-0.145314
-0.143717
-0.139394
-0.133397
-0.127294
-0.122117
-0.118519
-0.116472
-0.115548
-0.115172
-0.114807
-0.114092
-0.112868
-0.111134
-0.109078
-0.107165
-0.106034
-0.106125
-0.107476
-0.109932
-0.113346
-0.11748
-0.121883
-0.126056
-0.12968
-0.132612
-0.134809
-0.136494
-0.138255
-0.140844
-0.144868
-0.150685
-0.15844
-0.168032
-0.179055
-0.190822
-0.202504
-0.213278
-0.22246
-0.229569
-0.234326
-0.236645
-0.236648
-0.234657
-0.231163
-0.226794
-0.222313
-0.218574
-0.21637
-0.216239
-0.218388
-0.222758
-0.229073
-0.236791
-0.245022
-0.252673
-0.258717
-0.262437
-0.263578
-0.262353
-0.259308
-0.255082
-0.250175
-0.244856
-0.239169
-0.232881
-0.225458
-0.216203
-0.204561
-0.190374
-0.17394
-0.155829
-0.136537
-0.115955
-0.092958
-0.065464
-0.03093
-0.018716
0.034156
0.133239
0.207322
0.285747
0.362972
0.465169
0.530276
0.574742
0.596897
0.59523
0.569163
0.519156
0.446314
0.334632
0.251881
0.17059
0.025266
-0.046063
-0.04991
-0.065006
-0.044947
-0.047769
-0.044521
-0.038502
-0.031737
-0.025006
-0.018379
-0.011948
-0.006248
-0.002195
-0.000763
-0.002566
-0.007399
-0.013885
-0.019605
-0.021921
-0.018947
-0.010131
0.003644
0.020338
0.037422
0.052688
0.064802
0.07339
0.07884
0.082046
0.084006
0.085346
0.086161
0.086267
0.085566
0.084259
0.082884
0.082256
0.083165
